Time [ps],MSD Values,Log Time,Log MSD 
0.0,0.0,-inf,-inf
0.0009999999310821295,8.34878082969226e-05,6.907755278982137,-9.390810012817383
0.001999999978579581,0.00019170135783497244,7.600902459542082,-8.559572219848633
0.003000000026077032,0.00028434963314794004,8.006367567650246,-8.165306091308594
0.003999999957159162,0.0003819652774836868,8.294049640102028,-7.870181083679199
0.005000000004656613,0.0004315849218983203,8.517193191416238,-7.748046398162842
0.005999999935738742,0.000534292368683964,8.699514748210191,-7.534567356109619
0.006999999983236194,0.0006051185191608965,8.85366542803745,-7.410086154937744
0.008000000030733645,0.0007014087750576437,8.987196820661973,-7.262419700622559
0.008999999961815774,0.0008018066291697323,9.104979856318357,-7.128643035888672
0.010000000009313226,0.0009016104741021991,9.210340371976184,-7.011328220367432
0.010999999940395355,0.0009846073808148503,9.305650551780507,-6.923267841339111
0.011999999987892807,0.0011346807004883885,9.392661928770137,-6.7814040184021
0.013000000035390258,0.001210446353070438,9.472704636443673,-6.716766357421875
0.013999999966472387,0.0013239294057711959,9.546812608597396,-6.627151012420654
0.015000000013969839,0.0013948464766144753,9.615805480084347,-6.574970722198486
0.015999999945051968,0.001423382549546659,9.680344001221918,-6.554718971252441
0.01699999999254942,0.0014643747126683593,9.740968623038354,-6.526327133178711
0.01800000004004687,0.0015540102031081915,9.798127036878302,-6.466916561126709
0.018999999971129,0.001659122295677662,9.852194258148577,-6.401466369628906
0.02000000001862645,0.0017137369140982628,9.903487552536127,-6.369079113006592
0.02099999994970858,0.0017854757606983185,9.95227771670556,-6.328070163726807
0.021999999997206032,0.001895184046588838,9.998797732340453,-6.268439292907715
0.022999999928288162,0.0019481608178466558,10.043249494911286,-6.240869522094727
0.023999999975785613,0.0019819121807813644,10.085809109330082,-6.223693370819092
0.025000000023283064,0.00206184946000576,10.126631103850338,-6.184152126312256
0.025999999954365194,0.002094000345095992,10.165851817003619,-6.168679237365723
0.027000000001862645,0.0021903496235609055,10.203592144986466,-6.123693943023682
0.027999999932944775,0.0023093190975487232,10.239959789157341,-6.070802688598633
0.028999999980442226,0.0024017267860472202,10.275051108968611,-6.031567573547363
0.030000000027939677,0.0023682655300945044,10.308952660644293,-6.045597553253174
0.030999999959021807,0.002365315333008766,10.341742483467284,-6.046844005584717
0.03200000000651926,0.002394232200458646,10.373491181781864,-6.034692764282227
0.03299999993760139,0.00248591392301023,10.404262840448617,-5.997115135192871
0.03399999998509884,0.002491315361112356,10.4341158035983,-5.9949445724487305
0.03500000003259629,0.002590122167021036,10.46310334047155,-5.956050395965576
0.03599999996367842,0.002643476938828826,10.491274217438248,-5.935660362243652
0.03700000001117587,0.0027517720591276884,10.51867319162636,-5.895510196685791
0.037999999942258,0.0028303430881351233,10.545341438708522,-5.86735725402832
0.03899999998975545,0.0030203412752598524,10.571316925111784,-5.802385330200195
0.0400000000372529,0.0030597082804888487,10.596634733096073,-5.789435863494873
0.04099999996833503,0.003117775544524193,10.621327345686446,-5.770635604858398
0.042000000015832484,0.003165433881804347,10.645424897265505,-5.755465030670166
0.04299999994691461,0.003239057958126068,10.668955394675699,-5.732472896575928
0.043999999994412065,0.0033835230860859156,10.691944912900398,-5.688838005065918
0.045000000041909516,0.003393752733245492,10.714417768752456,-5.685819149017334
0.045999999972991645,0.0035696716513484716,10.736396675471232,-5.635281562805176
0.0470000000204891,0.0036019354593008757,10.757902880692196,-5.626284122467041
0.047999999951571226,0.0036836464423686266,10.778956289890028,-5.603852272033691
0.04899999999906868,0.0038134735077619553,10.799575577092764,-5.569214820861816
0.04999999993015081,0.003913444466888905,10.819778284410283,-5.543337345123291
0.05099999997764826,0.0040264916606247425,10.839580911706463,-5.514859676361084
0.05200000002514571,0.004127188585698605,10.858998997563564,-5.490159034729004
0.05299999995622784,0.0041054547764360905,10.87804719253426,-5.495438575744629
0.05400000000372529,0.004118072800338268,10.896739325546411,-5.492370128631592
0.05499999993480742,0.004074938129633665,10.915088464214607,-5.502899646759033
0.05599999998230487,0.004038702230900526,10.933106969717286,-5.511831760406494
0.05700000002980232,0.004205755423754454,10.950806546816688,-5.471301555633545
0.05799999996088445,0.004202272277325392,10.968198289528557,-5.472129821777344
0.0590000000083819,0.004178527742624283,10.985292722887856,-5.47779655456543
0.05999999993946403,0.004192090127617121,11.002099841204238,-5.474555969238281
0.060999999986961484,0.0042829676531255245,11.018629143155449,-5.453109264373779
0.062000000034458935,0.00437550526112318,11.03488966402723,-5.431733131408691
0.06299999996554106,0.004403014201670885,11.05089000537367,-5.425466060638428
0.06400000001303852,0.00440655741840601,11.06663836234181,-5.424661636352539
0.06499999994412065,0.0045426818542182446,11.082142548877775,-5.394237518310547
0.0659999999916181,0.004611715208739042,11.097410021008562,-5.37915563583374
0.06700000003911555,0.0046820249408483505,11.112447898373103,-5.364024639129639
0.06799999997019768,0.004745274316519499,11.127262984158243,-5.3506059646606445
0.06900000001769513,0.004836085252463818,11.141861783579396,-5.3316497802734375
0.06999999994877726,0.004947693087160587,11.156250521031495,-5.308834075927734
0.07099999999627471,0.005023974925279617,11.170435156023453,-5.293533802032471
0.07200000004377216,0.00513122696429491,11.184421397998193,-5.2724103927612305
0.07299999997485429,0.005036323796957731,11.198214720130528,-5.291079044342041
0.07400000002235174,0.005103479605168104,11.211820372186306,-5.277832508087158
0.07499999995343387,0.005230806302279234,11.225243392518447,-5.253190040588379
0.07600000000093132,0.005299609154462814,11.238488619268468,-5.240122318267822
0.07699999993201345,0.00542675843462348,11.251560700835821,-5.216413497924805
0.0779999999795109,0.005483083892613649,11.26446410567173,-5.206087589263916
0.07900000002700835,0.005544003564864397,11.27720313144916,-5.195038318634033
0.07999999995809048,0.00579071044921875,11.289781913656018,-5.151500225067139
0.08100000000558794,0.005901939235627651,11.302204433654575,-5.132474422454834
0.08199999993667006,0.005898141302168369,11.314474526246391,-5.133118152618408
0.08299999998416752,0.006110585294663906,11.326595886778735,-5.0977325439453125
0.08400000003166497,0.006135290022939444,11.33857207782545,-5.093698024749756
0.0849999999627471,0.006296867039054632,11.350406535472453,-5.0677032470703125
0.08600000001024455,0.006385300308465958,11.362102575235644,-5.0537567138671875
0.08699999994132668,0.006536508910357952,11.37366339763672,-5.0303521156311035
0.08799999998882413,0.0065951114520430565,11.385092093460344,-5.021426677703857
0.08900000003632158,0.006712723057717085,11.396391648714276,-5.003750801086426
0.08999999996740371,0.006843035575002432,11.407564949312402,-4.984523773193359
0.09100000001490116,0.006945277564227581,11.418614785498987,-4.969693183898926
0.09199999994598329,0.007141707930713892,11.429543856031177,-4.941803455352783
0.09299999999348074,0.007284641731530428,11.440354772135393,-4.921987056732178
0.0940000000409782,0.007407796569168568,11.451050061252142,-4.905222415924072
0.09499999997206032,0.007444796152412891,11.461632170582678,-4.900239944458008
0.09600000001955777,0.007506963796913624,11.472103470449973,-4.8919243812561035
0.0969999999506399,0.007546496577560902,11.48246625748552,-4.886672019958496
0.09799999999813735,0.007595894858241081,11.49272275765271,-4.880147457122803
0.09899999992921948,0.007745817769318819,11.502875129116727,-4.860602378845215
0.19900000002235174,0.01325327530503273,11.512925464970229,-4.323510646820068
0.2989999999990687,0.017483185976743698,11.522875795823397,-4.046515464782715
0.3989999999757856,0.021378984674811363,11.532728092266408,-3.8453469276428223
0.49899999995250255,0.026668056845664978,11.542484267211773,-3.62428879737854
0.5989999999292195,0.030690260231494904,11.55214617812351,-3.4838099479675293
0.6990000000223517,0.033987246453762054,11.56171562913966,-3.381769895553589
0.7989999999990687,0.03800917789340019,11.571194373094205,-3.269927740097046
0.8989999999757856,0.043428000062704086,11.580584113444043,-3.136650800704956
0.9989999999525025,0.044250961393117905,11.589886506106357,-3.1178781986236572
1.0989999999292195,0.0494307242333889,11.59910316121128,-3.007183074951172
1.1990000000223517,0.05270734429359436,11.608235644774552,-2.943000555038452
1.2989999999990687,0.053968507796525955,11.617285480294472,-2.9193546772003174
1.3989999999757856,0.054482635110616684,11.626254150277232,-2.9098732471466064
1.4989999999525025,0.05397867038846016,11.635143097694478,-2.919166326522827
1.5989999999292195,0.05589583143591881,11.643953727376633,-2.884265422821045
1.6990000000223517,0.060202453285455704,11.652687407345388,-2.810042142868042
1.7989999999990687,0.06411162763834,11.661345470088502,-2.747129440307617
1.8989999999757856,0.06338219344615936,11.669929213779893,-2.7585723400115967
1.9989999999525025,0.06700462102890015,11.678439903447801,-2.702993631362915
2.0989999999292195,0.06933282315731049,11.686878772093667,-2.668836832046509
2.1990000000223517,0.0694449171423912,11.695247021764184,-2.6672213077545166
2.2989999999990687,0.07031422108411789,11.703545824578878,-2.6547813415527344
2.3989999999757856,0.06965156644582748,11.711776323715394,-2.664250135421753
2.4989999999525025,0.07420297712087631,11.719939634354555,-2.6009509563446045
2.5989999999292195,0.08131961524486542,11.728036844587175,-2.5093679428100586
2.6990000000223517,0.08628736436367035,11.736069016284437,-2.4500720500946045
2.7989999999990687,0.08745133131742477,11.744037185933616,-2.4366729259490967
2.8989999999757856,0.09277426451444626,11.751942365440728,-2.3775861263275146
2.9989999999525025,0.09441341459751129,11.759785542901755,-2.360072135925293
3.0989999999292195,0.09747742861509323,11.76756768334381,-2.328134536743164
3.1990000000223517,0.0995684266090393,11.77528972943772,-2.306910276412964
3.2989999999990687,0.10147250443696976,11.782952602183288,-2.2879674434661865
3.3989999999757856,0.10742160677909851,11.790557201568507,-2.2309939861297607
3.4989999999525025,0.10679057240486145,11.79810440720389,-2.2368855476379395
3.5989999999292195,0.11357147991657257,11.805595078933049,-2.1753227710723877
3.6990000000223517,0.1193176731467247,11.813030057420567,-2.1259658336639404
3.7989999999990687,0.12074311822652817,11.820410164718188,-2.1140899658203125
3.8989999999757856,0.11866478621959686,11.827736204810263,-2.131452798843384
3.9989999999525025,0.11970676481723785,11.835008964139341,-2.1227102279663086
4.0989999999292195,0.11801555752754211,11.842229212112828,-2.1369388103485107
4.199000000022352,0.11816977709531784,11.84939770159144,-2.1356329917907715
4.298999999999069,0.11361371725797653,11.856515169360305,-2.1749510765075684
4.398999999975786,0.1147226020693779,11.863582336583399,-2.16523814201355
4.4989999999525025,0.11584482342004776,11.870599909242044,-2.155503749847412
4.5989999999292195,0.12169899791479111,11.877568578558138,-2.1062045097351074
4.699000000022352,0.12304112315177917,11.884489021402711,-2.0952365398406982
4.798999999999069,0.12233693897724152,11.891361900690473,-2.1009762287139893
4.898999999975786,0.12238280475139618,11.898187865760873,-2.1006014347076416
4.9989999999525025,0.12494145333766937,11.904967552746252,-2.0799100399017334
5.0989999999292195,0.12152521312236786,11.911701584927597,-2.107633590698242
5.199000000022352,0.12349647283554077,11.918390573078392,-2.0915427207946777
5.298999999999069,0.12535391747951508,11.925035115797062,-2.0766141414642334
5.398999999975786,0.12975521385669708,11.931635799828413,-2.0421056747436523
5.4989999999525025,0.12970642745494843,11.938193200374572,-2.0424816608428955
5.5989999999292195,0.1268598884344101,11.944707881395766,-2.0646719932556152
5.699000000022352,0.12830054759979248,11.951180395901384,-2.053379774093628
5.798999999999069,0.12638339400291443,11.957611286231675,-2.0684351921081543
5.898999999975786,0.13360677659511566,11.964001084330445,-2.0128543376922607
5.9989999999525025,0.1408533900976181,11.970350312009105,-1.9600356817245483
6.0989999999292195,0.14086221158504486,11.976659481202368,-1.9599730968475342
6.199000000022352,0.13681499660015106,11.982929094215963,-1.9891256093978882
6.298999999999069,0.13135458528995514,11.9891596439666,-2.0298547744750977
6.398999999975786,0.13982120156288147,11.99535161421452,-1.967390775680542
6.4989999999525025,0.1455153077840805,12.0015054797889,-1.927474021911621
6.5989999999292195,0.13979557156562805,12.007621706806335,-1.967574119567871
6.699000000022352,0.1473635733127594,12.013700752882718,-1.914852499961853
6.798999999999069,0.14562182128429413,12.01974306733868,-1.9267423152923584
6.898999999975786,0.14424386620521545,12.025749091398891,-1.936249852180481
6.9989999999525025,0.14706727862358093,12.031719258385396,-1.9168651103973389
7.0989999999292195,0.14955420792102814,12.037653993905211,-1.9000964164733887
7.199000000022352,0.16565249860286713,12.043553716032399,-1.7978630065917969
7.298999999999069,0.1733439862728119,12.049418835484797,-1.7524772882461548
7.398999999975786,0.1684020310640335,12.05524975579559,-1.7814011573791504
7.4989999999525025,0.16957461833953857,12.061046873479915,-1.7744622230529785
7.5989999999292195,0.16565242409706116,12.066810578196666,-1.797863483428955
7.699000000022352,0.1593656986951828,12.072541252905651,-1.836553692817688
7.798999999999069,0.16123995184898376,12.078239274020289,-1.8248616456985474
7.898999999975786,0.16769757866859436,12.083905011555967,-1.785593032836914
7.9989999999525025,0.1785418540239334,12.089538829274222,-1.72293221950531
8.09899999992922,0.18969716131687164,12.095141084822892,-1.6623263359069824
8.199000000022352,0.18716482818126678,12.100712129872347,-1.6757656335830688
8.298999999999069,0.19413112103939056,12.106252310247962,-1.639221429824829
8.398999999975786,0.18914185464382172,12.111761966058932,-1.6652579307556152
8.498999999952503,0.18623864650726318,12.117241431823558,-1.680726408958435
8.59899999992922,0.188871368765831,12.122691036591123,-1.6666890382766724
8.699000000022352,0.19416967034339905,12.128111104060462,-1.6390228271484375
8.798999999999069,0.2026788294315338,12.133501952695338,-1.596132755279541
8.898999999975786,0.20890241861343384,12.138863895836725,-1.5658880472183228
8.998999999952503,0.2062734067440033,12.144197241812087,-1.5785527229309082
9.09899999992922,0.2044209986925125,12.14950229404178,-1.5875736474990845
9.199000000022352,0.20465639233589172,12.154779351142624,-1.5864229202270508
9.298999999999069,0.2089082896709442,12.160028707028767,-1.5658599138259888
9.398999999975786,0.2031553089618683,12.165250651009918,-1.5937845706939697
9.498999999952503,0.20656812191009521,12.170445467887022,-1.577125072479248
9.59899999992922,0.2078457474708557,12.175613438045465,-1.5709590911865234
9.699000000022352,0.21363195776939392,12.180754837545884,-1.543500542640686
9.798999999999069,0.20361222326755524,12.185869938212655,-1.5915379524230957
9.898999999975786,0.20594210922718048,12.190959007720126,-1.580160140991211
9.998999999952503,0.2096724510192871,12.196022309676673,-1.5622087717056274
10.09899999992922,0.21138237416744232,12.201060103706629,-1.5540865659713745
10.199000000022352,0.21318219602108002,12.206072645530174,-1.5456080436706543
10.298999999999069,0.20628081262111664,12.211060187041213,-1.5785168409347534
10.398999999975786,0.2066781222820282,12.216022976383341,-1.5765926837921143
10.498999999952503,0.20287171006202698,12.220961258023925,-1.5951814651489258
10.59899999992922,0.19723305106163025,12.225875272826354,-1.6233692169189453
10.699000000022352,0.19717247784137726,12.230765258120545,-1.6236764192581177
10.798999999999069,0.1960713118314743,12.235631447771718,-1.6292768716812134
10.898999999975786,0.19501888751983643,12.240474072247506,-1.6346588134765625
10.998999999952503,0.19862323999404907,12.245293358683455,-1.6163455247879028
11.09899999992922,0.20196019113063812,12.250089530946948,-1.599684715270996
11.199000000022352,0.2119905650615692,12.254862809699606,-1.5512135028839111
11.298999999999069,0.21256983280181885,12.259613412458204,-1.5484846830368042
11.398999999975786,0.21739014983177185,12.26434155365415,-1.5260616540908813
11.498999999952503,0.2151474505662918,12.269047444691562,-1.5364316701889038
11.59899999992922,0.21338972449302673,12.273731294003989,-1.5446350574493408
11.699000000022352,0.21041905879974365,12.2783933071098,-1.5586541891098022
11.798999999999069,0.20563818514347076,12.283033686666302,-1.5816370248794556
11.898999999975786,0.21151818335056305,12.287652632522597,-1.5534443855285645
11.998999999952503,0.20992706716060638,12.292250341771226,-1.560995101928711
12.09899999992922,0.21125420928001404,12.296827008798639,-1.5546931028366089
12.199000000022352,0.21359506249427795,12.301382825334498,-1.5436732769012451
12.298999999999069,0.2105552852153778,12.30591798049989,-1.558007001876831
12.398999999975786,0.20924699306488037,12.310432660854417,-1.5642399787902832
12.498999999952503,0.20795486867427826,12.314927050442256,-1.5704342126846313
12.59899999992922,0.20728136599063873,12.319401330837177,-1.5736781358718872
12.699000000022352,0.19683264195919037,12.323855681186558,-1.625401496887207
12.798999999999069,0.2086414396762848,12.328290278254423,-1.5671380758285522
12.898999999975786,0.21460193395614624,12.332705296463539,-1.5389704704284668
12.998999999952503,0.21627473831176758,12.337100907936577,-1.5312057733535767
13.09899999992922,0.21623611450195312,12.341477282536376,-1.5313843488693237
13.199000000022352,0.2265450805425644,12.345834587905333,-1.4848113059997559
13.298999999999069,0.2197892963886261,12.35017298950393,-1.5150859355926514
13.398999999975786,0.2195199728012085,12.354492650648448,-1.5163121223449707
13.498999999952503,0.21604883670806885,12.358793732547838,-1.5322507619857788
13.59899999992922,0.21110491454601288,12.363076394339839,-1.555400013923645
13.699000000022352,0.19889742136001587,12.367340793126296,-1.6149660348892212
13.798999999999069,0.20118023455142975,12.371587084007746,-1.603554129600525
13.898999999975786,0.20289242267608643,12.375815420117268,-1.5950794219970703
13.998999999952503,0.20017942786216736,12.380025952653611,-1.6085412502288818
14.09899999992922,0.2052437961101532,12.384218830913648,-1.5835567712783813
14.199000000022352,0.21557319164276123,12.388394202324129,-1.5344548225402832
14.298999999999069,0.2112523317337036,12.392552212472792,-1.5547020435333252
14.398999999975786,0.2126414030790329,12.396693005138824,-1.5481481552124023
14.498999999952503,0.209610715508461,12.400816722322686,-1.5625032186508179
14.59899999992922,0.20865848660469055,12.404923504275338,-1.56705641746521
14.699000000022352,0.2158517837524414,12.409013489526863,-1.53316330909729
14.798999999999069,0.21788771450519562,12.4130868149145,-1.5237754583358765
14.898999999975786,0.21839027106761932,12.417143615610113,-1.521471619606018
14.998999999952503,0.21441178023815155,12.421184025147118,-1.5398569107055664
15.09899999992922,0.2143683284521103,12.425208175446844,-1.5400595664978027
15.199000000022352,0.22321616113185883,12.429216196844383,-1.4996145963668823
15.298999999999069,0.21686650812625885,12.43320821811392,-1.5284732580184937
15.398999999975786,0.21138715744018555,12.437184366493561,-1.5540639162063599
15.498999999952503,0.21142148971557617,12.441144767709657,-1.5539015531539917
15.59899999992922,0.203146293759346,12.445089546000673,-1.5938289165496826
15.699000000022352,0.20401233434677124,12.449018824140563,-1.5895748138427734
15.798999999999069,0.20422998070716858,12.4529327234617,-1.5885086059570312
