Time [ps],MSD Values,Log Time,Log MSD 
0.0,0.0,-inf,-inf
0.0009999999310821295,0.00039838036173023283,6.907755278982137,-7.828103542327881
0.001999999978579581,0.0007962465169839561,7.600902459542082,-7.13560152053833
0.003000000026077032,0.001141923014074564,8.006367567650246,-6.775041580200195
0.003999999957159162,0.0015251956647261977,8.294049640102028,-6.485632419586182
0.005000000004656613,0.0019007609225809574,8.517193191416238,-6.265501022338867
0.005999999935738742,0.0022529021371155977,8.699514748210191,-6.095536231994629
0.006999999983236194,0.0025916441809386015,8.85366542803745,-5.95546293258667
0.008000000030733645,0.002926053712144494,8.987196820661973,-5.834100723266602
0.008999999961815774,0.003272213274613023,9.104979856318357,-5.722288608551025
0.010000000009313226,0.0035592233762145042,9.210340371976184,-5.638213157653809
0.010999999940395355,0.0038758190348744392,9.305650551780507,-5.552998065948486
0.011999999987892807,0.004234146326780319,9.392661928770137,-5.464573383331299
0.013000000035390258,0.004523022565990686,9.472704636443673,-5.3985748291015625
0.013999999966472387,0.004849691409617662,9.546812608597396,-5.328840255737305
0.015000000013969839,0.005168720614165068,9.615805480084347,-5.265130043029785
0.015999999945051968,0.005391606129705906,9.680344001221918,-5.222911834716797
0.01699999999254942,0.005572873633354902,9.740968623038354,-5.189844608306885
0.01800000004004687,0.0058385105803608894,9.798127036878302,-5.143279552459717
0.018999999971129,0.006128381472080946,9.852194258148577,-5.09482479095459
0.02000000001862645,0.006308489944785833,9.903487552536127,-5.065858840942383
0.02099999994970858,0.006574360188096762,9.95227771670556,-5.024578094482422
0.021999999997206032,0.006792914122343063,9.998797732340453,-4.991875171661377
0.022999999928288162,0.00708817271515727,10.043249494911286,-4.94932746887207
0.023999999975785613,0.007287145126610994,10.085809109330082,-4.921643257141113
0.025000000023283064,0.0075760516338050365,10.126631103850338,-4.882762908935547
0.025999999954365194,0.0077450331300497055,10.165851817003619,-4.860703468322754
0.027000000001862645,0.008063845336437225,10.203592144986466,-4.820364952087402
0.027999999932944775,0.008291181176900864,10.239959789157341,-4.792562961578369
0.028999999980442226,0.008554335683584213,10.275051108968611,-4.761317253112793
0.030000000027939677,0.008770416490733624,10.308952660644293,-4.736371040344238
0.030999999959021807,0.00897624995559454,10.341742483467284,-4.713172912597656
0.03200000000651926,0.009243862703442574,10.373491181781864,-4.68379545211792
0.03299999993760139,0.009503930807113647,10.404262840448617,-4.656049728393555
0.03399999998509884,0.009811804629862309,10.4341158035983,-4.624168872833252
0.03500000003259629,0.010009256191551685,10.46310334047155,-4.604245185852051
0.03599999996367842,0.010260998271405697,10.491274217438248,-4.579405307769775
0.03700000001117587,0.010509994812309742,10.51867319162636,-4.555428504943848
0.037999999942258,0.01064536813646555,10.545341438708522,-4.542630195617676
0.03899999998975545,0.01091054081916809,10.571316925111784,-4.518025875091553
0.0400000000372529,0.01107566338032484,10.596634733096073,-4.503005027770996
0.04099999996833503,0.0111456997692585,10.621327345686446,-4.496701717376709
0.042000000015832484,0.011445390991866589,10.645424897265505,-4.470168113708496
0.04299999994691461,0.011668425984680653,10.668955394675699,-4.450868606567383
0.043999999994412065,0.012020205147564411,10.691944912900398,-4.42116641998291
0.045000000041909516,0.012255115434527397,10.714417768752456,-4.4018120765686035
0.045999999972991645,0.01250525750219822,10.736396675471232,-4.381606101989746
0.0470000000204891,0.012612992897629738,10.757902880692196,-4.373027801513672
0.047999999951571226,0.012633278965950012,10.778956289890028,-4.371420860290527
0.04899999999906868,0.012878842651844025,10.799575577092764,-4.352169513702393
0.04999999993015081,0.013128709979355335,10.819778284410283,-4.332953929901123
0.05099999997764826,0.013244212605059147,10.839580911706463,-4.324194431304932
0.05200000002514571,0.013223242945969105,10.858998997563564,-4.325778961181641
0.05299999995622784,0.013354460708796978,10.87804719253426,-4.31590461730957
0.05400000000372529,0.01361484918743372,10.896739325546411,-4.296594142913818
0.05499999993480742,0.01364613976329565,10.915088464214607,-4.2942986488342285
0.05599999998230487,0.013882317580282688,10.933106969717286,-4.277139186859131
0.05700000002980232,0.014116380363702774,10.950806546816688,-4.2604193687438965
0.05799999996088445,0.014292153529822826,10.968198289528557,-4.248044490814209
0.0590000000083819,0.014434033073484898,10.985292722887856,-4.238166332244873
0.05999999993946403,0.014753686264157295,11.002099841204238,-4.216262340545654
0.060999999986961484,0.015071740373969078,11.018629143155449,-4.194933891296387
0.062000000034458935,0.015175961889326572,11.03488966402723,-4.188042640686035
0.06299999996554106,0.015341642312705517,11.05089000537367,-4.177184581756592
0.06400000001303852,0.015568120405077934,11.06663836234181,-4.162529945373535
0.06499999994412065,0.015752626582980156,11.082142548877775,-4.150748252868652
0.0659999999916181,0.01605341024696827,11.097410021008562,-4.131834030151367
0.06700000003911555,0.01611708477139473,11.112447898373103,-4.127875328063965
0.06799999997019768,0.016303367912769318,11.127262984158243,-4.1163835525512695
0.06900000001769513,0.016549931839108467,11.141861783579396,-4.101373195648193
0.06999999994877726,0.01686316914856434,11.156250521031495,-4.082623481750488
0.07099999999627471,0.016940614208579063,11.170435156023453,-4.0780415534973145
0.07200000004377216,0.017374960705637932,11.184421397998193,-4.052725315093994
0.07299999997485429,0.01752428337931633,11.198214720130528,-4.044167518615723
0.07400000002235174,0.01759379543364048,11.211820372186306,-4.04020881652832
0.07499999995343387,0.01769711636006832,11.225243392518447,-4.034353733062744
0.07600000000093132,0.017909694463014603,11.238488619268468,-4.02241325378418
0.07699999993201345,0.018126891925930977,11.251560700835821,-4.010358810424805
0.0779999999795109,0.01833377778530121,11.26446410567173,-3.9990100860595703
0.07900000002700835,0.018600352108478546,11.27720313144916,-3.984574794769287
0.07999999995809048,0.0186479389667511,11.289781913656018,-3.9820196628570557
0.08100000000558794,0.018880337476730347,11.302204433654575,-3.9696342945098877
0.08199999993667006,0.019023725762963295,11.314474526246391,-3.9620683193206787
0.08299999998416752,0.019252516329288483,11.326595886778735,-3.950113534927368
0.08400000003166497,0.019328683614730835,11.33857207782545,-3.946165084838867
0.0849999999627471,0.01938459649682045,11.350406535472453,-3.9432766437530518
0.08600000001024455,0.01958720199763775,11.362102575235644,-3.9328789710998535
0.08699999994132668,0.01982993446290493,11.37366339763672,-3.920562744140625
0.08799999998882413,0.020158231258392334,11.385092093460344,-3.9041426181793213
0.08900000003632158,0.020454924553632736,11.396391648714276,-3.8895316123962402
0.08999999996740371,0.02074156142771244,11.407564949312402,-3.8756158351898193
0.09100000001490116,0.02091865986585617,11.418614785498987,-3.8671135902404785
0.09199999994598329,0.021132882684469223,11.429543856031177,-3.8569250106811523
0.09299999999348074,0.0213797464966774,11.440354772135393,-3.845311164855957
0.0940000000409782,0.021533891558647156,11.451050061252142,-3.8381271362304688
0.09499999997206032,0.021602677181363106,11.461632170582678,-3.8349380493164062
0.09600000001955777,0.021732252091169357,11.472103470449973,-3.8289577960968018
0.0969999999506399,0.021918578073382378,11.48246625748552,-3.820420742034912
0.09799999999813735,0.021962499246001244,11.49272275765271,-3.8184189796447754
0.09899999992921948,0.022271478548645973,11.502875129116727,-3.804448366165161
0.19900000002235174,0.035356394946575165,11.512925464970229,-3.342276096343994
0.2989999999990687,0.04446137696504593,11.522875795823397,-3.1131343841552734
0.3989999999757856,0.052892789244651794,11.532728092266408,-2.939488172531128
0.49899999995250255,0.061556749045848846,11.542484267211773,-2.7877957820892334
0.5989999999292195,0.07411321252584457,11.55214617812351,-2.602161407470703
0.6990000000223517,0.0822720006108284,11.56171562913966,-2.4977245330810547
0.7989999999990687,0.09185056388378143,11.571194373094205,-2.387592315673828
0.8989999999757856,0.10035064816474915,11.580584113444043,-2.2990846633911133
0.9989999999525025,0.10682718455791473,11.589886506106357,-2.2365429401397705
1.0989999999292195,0.11487620323896408,11.59910316121128,-2.163900136947632
1.1990000000223517,0.12389180064201355,11.608235644774552,-2.0883467197418213
1.2989999999990687,0.133876770734787,11.617285480294472,-2.0108354091644287
1.3989999999757856,0.14055702090263367,11.626254150277232,-1.962141990661621
1.4989999999525025,0.1481330543756485,11.635143097694478,-1.909644365310669
1.5989999999292195,0.15470896661281586,11.643953727376633,-1.866209626197815
1.6990000000223517,0.16073650121688843,11.652687407345388,-1.827988862991333
1.7989999999990687,0.1685476005077362,11.661345470088502,-1.7805371284484863
1.8989999999757856,0.18022117018699646,11.669929213779893,-1.713570475578308
1.9989999999525025,0.1865217238664627,11.678439903447801,-1.6792075634002686
2.0989999999292195,0.195026233792305,11.686878772093667,-1.6346211433410645
2.1990000000223517,0.20614008605480194,11.695247021764184,-1.5791993141174316
2.2989999999990687,0.21514327824115753,11.703545824578878,-1.5364511013031006
2.3989999999757856,0.22269104421138763,11.711776323715394,-1.5019699335098267
2.4989999999525025,0.22608502209186554,11.719939634354555,-1.4868441820144653
2.5989999999292195,0.23162496089935303,11.728036844587175,-1.4626357555389404
2.6990000000223517,0.23665298521518707,11.736069016284437,-1.4411604404449463
2.7989999999990687,0.24824641644954681,11.744037185933616,-1.3933334350585938
2.8989999999757856,0.2529067397117615,11.751942365440728,-1.3747345209121704
2.9989999999525025,0.2543395161628723,11.759785542901755,-1.3690851926803589
3.0989999999292195,0.26273617148399353,11.76756768334381,-1.3366049528121948
3.1990000000223517,0.2697332501411438,11.77528972943772,-1.3103218078613281
3.2989999999990687,0.2760091722011566,11.782952602183288,-1.2873212099075317
3.3989999999757856,0.28281310200691223,11.790557201568507,-1.2629690170288086
3.4989999999525025,0.2946814000606537,11.79810440720389,-1.2218605279922485
3.5989999999292195,0.3004026710987091,11.805595078933049,-1.2026314735412598
3.6990000000223517,0.31042537093162537,11.813030057420567,-1.169811725616455
3.7989999999990687,0.31500962376594543,11.820410164718188,-1.1551520824432373
3.8989999999757856,0.323281854391098,11.827736204810263,-1.1292307376861572
3.9989999999525025,0.3251327574253082,11.835008964139341,-1.1235216856002808
4.0989999999292195,0.33418864011764526,11.842229212112828,-1.0960496664047241
4.199000000022352,0.3361995816230774,11.84939770159144,-1.090050220489502
4.298999999999069,0.34585151076316833,11.856515169360305,-1.0617457628250122
4.398999999975786,0.35314545035362244,11.863582336583399,-1.0408753156661987
4.4989999999525025,0.35439446568489075,11.870599909242044,-1.0373446941375732
4.5989999999292195,0.3617415726184845,11.877568578558138,-1.0168251991271973
4.699000000022352,0.36093518137931824,11.884489021402711,-1.0190569162368774
4.798999999999069,0.36889684200286865,11.891361900690473,-0.997238278388977
4.898999999975786,0.3772840201854706,11.898187865760873,-0.9747570157051086
4.9989999999525025,0.38278621435165405,11.904967552746252,-0.9602786302566528
5.0989999999292195,0.38914811611175537,11.911701584927597,-0.9437952041625977
5.199000000022352,0.3968084752559662,11.918390573078392,-0.9243015646934509
5.298999999999069,0.40583470463752747,11.925035115797062,-0.9018093347549438
5.398999999975786,0.41005170345306396,11.931635799828413,-0.8914720416069031
5.4989999999525025,0.4244035482406616,11.938193200374572,-0.8570705056190491
5.5989999999292195,0.42665743827819824,11.944707881395766,-0.8517738580703735
5.699000000022352,0.4386102557182312,11.951180395901384,-0.8241440653800964
5.798999999999069,0.44752129912376404,11.957611286231675,-0.8040311336517334
5.898999999975786,0.449972540140152,11.964001084330445,-0.7985687255859375
5.9989999999525025,0.45421144366264343,11.970350312009105,-0.7891924381256104
6.0989999999292195,0.4650189280509949,11.976659481202368,-0.7656771540641785
6.199000000022352,0.47969526052474976,11.982929094215963,-0.7346042394638062
6.298999999999069,0.48677217960357666,11.9891596439666,-0.7199590802192688
6.398999999975786,0.4881594479084015,11.99535161421452,-0.717113196849823
6.4989999999525025,0.4981384575366974,12.0015054797889,-0.6968772411346436
6.5989999999292195,0.513046145439148,12.007621706806335,-0.6673895120620728
6.699000000022352,0.5199143886566162,12.013700752882718,-0.6540911197662354
6.798999999999069,0.5323587656021118,12.01974306733868,-0.6304376721382141
6.898999999975786,0.5368996262550354,12.025749091398891,-0.6219441294670105
6.9989999999525025,0.544592559337616,12.031719258385396,-0.6077173352241516
7.0989999999292195,0.5574102997779846,12.037653993905211,-0.5844537019729614
7.199000000022352,0.5565688610076904,12.043553716032399,-0.5859643816947937
7.298999999999069,0.5682234764099121,12.049418835484797,-0.5652405023574829
7.398999999975786,0.5733106732368469,12.05524975579559,-0.5563275218009949
7.4989999999525025,0.5772295594215393,12.061046873479915,-0.5495152473449707
7.5989999999292195,0.5786226987838745,12.066810578196666,-0.5471046566963196
7.699000000022352,0.5842763185501099,12.072541252905651,-0.5373812913894653
7.798999999999069,0.5869719386100769,12.078239274020289,-0.532778263092041
7.898999999975786,0.5890564918518066,12.083905011555967,-0.5292332172393799
7.9989999999525025,0.5977407097816467,12.089538829274222,-0.5145981907844543
8.09899999992922,0.6042241454124451,12.095141084822892,-0.5038100481033325
8.199000000022352,0.6176899075508118,12.100712129872347,-0.48176872730255127
8.298999999999069,0.6280890703201294,12.106252310247962,-0.46507328748703003
8.398999999975786,0.6331599950790405,12.111761966058932,-0.45703214406967163
8.498999999952503,0.6330719590187073,12.117241431823558,-0.4571712017059326
8.59899999992922,0.6328685283660889,12.122691036591123,-0.4574925899505615
8.699000000022352,0.6315844058990479,12.128111104060462,-0.45952367782592773
8.798999999999069,0.6441478133201599,12.133501952695338,-0.4398270547389984
8.898999999975786,0.6553606390953064,12.138863895836725,-0.42256960272789
8.998999999952503,0.6631549596786499,12.144197241812087,-0.41074657440185547
9.09899999992922,0.6697003245353699,12.14950229404178,-0.400924950838089
9.199000000022352,0.6722871661186218,12.154779351142624,-0.3970697224140167
9.298999999999069,0.6765467524528503,12.160028707028767,-0.39075374603271484
9.398999999975786,0.6795310974121094,12.165250651009918,-0.3863522708415985
9.498999999952503,0.6845752000808716,12.170445467887022,-0.37895679473876953
9.59899999992922,0.6909319162368774,12.175613438045465,-0.36971399188041687
9.699000000022352,0.7046617865562439,12.180754837545884,-0.3500373363494873
9.798999999999069,0.7200576066970825,12.185869938212655,-0.32842403650283813
9.898999999975786,0.7283280491828918,12.190959007720126,-0.31700369715690613
9.998999999952503,0.7333430051803589,12.196022309676673,-0.3101416826248169
10.09899999992922,0.7423526048660278,12.201060103706629,-0.2979309558868408
10.199000000022352,0.7572352290153503,12.206072645530174,-0.27808138728141785
10.298999999999069,0.7613902688026428,12.211060187041213,-0.2726092040538788
10.398999999975786,0.7677513957023621,12.216022976383341,-0.26428931951522827
10.498999999952503,0.7785245180130005,12.220961258023925,-0.2503547668457031
10.59899999992922,0.7779199481010437,12.225875272826354,-0.2511316239833832
10.699000000022352,0.7896549701690674,12.230765258120545,-0.23615919053554535
10.798999999999069,0.790846586227417,12.235631447771718,-0.23465129733085632
10.898999999975786,0.7913751602172852,12.240474072247506,-0.233983114361763
10.998999999952503,0.8021371364593506,12.245293358683455,-0.2204756736755371
11.09899999992922,0.8089220523834229,12.250089530946948,-0.21205271780490875
11.199000000022352,0.8103548288345337,12.254862809699606,-0.2102830410003662
11.298999999999069,0.8131086826324463,12.259613412458204,-0.2068905085325241
11.398999999975786,0.8198972940444946,12.26434155365415,-0.1985762119293213
11.498999999952503,0.8289514780044556,12.269047444691562,-0.18759363889694214
11.59899999992922,0.8326922655105591,12.273731294003989,-0.18309113383293152
11.699000000022352,0.8445873856544495,12.2783933071098,-0.1689070612192154
11.798999999999069,0.8614380359649658,12.283033686666302,-0.14915215969085693
11.898999999975786,0.8719618916511536,12.287652632522597,-0.13700956106185913
11.998999999952503,0.8707103133201599,12.292250341771226,-0.13844594359397888
12.09899999992922,0.869127094745636,12.296827008798639,-0.14026591181755066
12.199000000022352,0.877005398273468,12.301382825334498,-0.13124212622642517
12.298999999999069,0.8853676319122314,12.30591798049989,-0.12175232172012329
12.398999999975786,0.8936528563499451,12.310432660854417,-0.1124378889799118
12.498999999952503,0.900161862373352,12.314927050442256,-0.10518068075180054
12.59899999992922,0.8988785147666931,12.319401330837177,-0.10660739243030548
12.699000000022352,0.9066730737686157,12.323855681186558,-0.09797334671020508
12.798999999999069,0.9069329500198364,12.328290278254423,-0.0976867601275444
12.898999999975786,0.9118275046348572,12.332705296463539,-0.09230444580316544
12.998999999952503,0.9165061116218567,12.337100907936577,-0.0871865376830101
13.09899999992922,0.9258098006248474,12.341477282536376,-0.07708646357059479
13.199000000022352,0.9269054532051086,12.345834587905333,-0.07590370625257492
13.298999999999069,0.9346213936805725,12.35017298950393,-0.06761375814676285
13.398999999975786,0.937063992023468,12.354492650648448,-0.06500370800495148
13.498999999952503,0.9419227242469788,12.358793732547838,-0.05983204022049904
13.59899999992922,0.9568797945976257,12.363076394339839,-0.04407750442624092
13.699000000022352,0.9694024920463562,12.367340793126296,-0.031075386330485344
13.798999999999069,0.9663344025611877,12.371587084007746,-0.0342453308403492
13.898999999975786,0.9678458571434021,12.375815420117268,-0.03268244117498398
13.998999999952503,0.9791237115859985,12.380025952653611,-0.021097280085086823
14.09899999992922,0.975274920463562,12.384218830913648,-0.025035876780748367
14.199000000022352,0.98433917760849,12.388394202324129,-0.015784747898578644
14.298999999999069,0.9850258231163025,12.392552212472792,-0.015087421052157879
14.398999999975786,1.0028935670852661,12.396693005138824,0.002889388706535101
14.498999999952503,1.0007996559143066,12.400816722322686,0.0007993364124558866
14.59899999992922,1.006569504737854,12.404923504275338,0.006548019591718912
14.699000000022352,1.0176126956939697,12.409013489526863,0.017459388822317123
14.798999999999069,1.0201232433319092,12.4130868149145,0.01992344669997692
14.898999999975786,1.0240951776504517,12.417143615610113,0.023809470236301422
14.998999999952503,1.0413389205932617,12.421184025147118,0.04050731286406517
15.09899999992922,1.0377446413040161,12.425208175446844,0.03704974427819252
15.199000000022352,1.048346757888794,12.429216196844383,0.04721440374851227
15.298999999999069,1.0538045167922974,12.43320821811392,0.05240696296095848
15.398999999975786,1.0584834814071655,12.437184366493561,0.05683720484375954
15.498999999952503,1.065975308418274,12.441144767709657,0.06389015913009644
15.59899999992922,1.0738929510116577,12.445089546000673,0.07129032164812088
15.699000000022352,1.0833568572998047,12.449018824140563,0.08006442338228226
15.798999999999069,1.083186149597168,12.4529327234617,0.07990683615207672
15.898999999975786,1.0890225172042847,12.456831363877356,0.08528051525354385
