Time [ps],MSD Values,Log Time,Log MSD 
0.0,0.0,-inf,-inf
0.0009999999310821295,0.00042866577859967947,6.907755278982137,-7.754833221435547
0.001999999978579581,0.000813581864349544,7.600902459542082,-7.1140642166137695
0.003000000026077032,0.0011964277364313602,8.006367567650246,-6.728415012359619
0.003999999957159162,0.0015454899985343218,8.294049640102028,-6.472414493560791
0.005000000004656613,0.001886373502202332,8.517193191416238,-6.273098945617676
0.005999999935738742,0.0022551321890205145,8.699514748210191,-6.094546794891357
0.006999999983236194,0.002589950105175376,8.85366542803745,-5.956116676330566
0.008000000030733645,0.0028698809910565615,8.987196820661973,-5.853484630584717
0.008999999961815774,0.0030943509191274643,9.104979856318357,-5.778177261352539
0.010000000009313226,0.0033503491431474686,9.210340371976184,-5.698690891265869
0.010999999940395355,0.003649437567219138,9.305650551780507,-5.613182067871094
0.011999999987892807,0.00392546784132719,9.392661928770137,-5.54026985168457
0.013000000035390258,0.0041608684696257114,9.472704636443673,-5.482031345367432
0.013999999966472387,0.004399260971695185,9.546812608597396,-5.426318645477295
0.015000000013969839,0.004620333667844534,9.615805480084347,-5.377288341522217
0.015999999945051968,0.004866238217800856,9.680344001221918,-5.32543420791626
0.01699999999254942,0.0050491830334067345,9.740968623038354,-5.288528919219971
0.01800000004004687,0.005240949802100658,9.798127036878302,-5.2512526512146
0.018999999971129,0.005468265153467655,9.852194258148577,-5.208794116973877
0.02000000001862645,0.005706757307052612,9.903487552536127,-5.166104316711426
0.02099999994970858,0.005906789563596249,9.95227771670556,-5.13165283203125
0.021999999997206032,0.006084611173719168,9.998797732340453,-5.101992607116699
0.022999999928288162,0.006291965488344431,10.043249494911286,-5.068481922149658
0.023999999975785613,0.0065070451237261295,10.085809109330082,-5.03486967086792
0.025000000023283064,0.006730363704264164,10.126631103850338,-5.001126289367676
0.025999999954365194,0.006914804223924875,10.165851817003619,-4.974090576171875
0.027000000001862645,0.007087869103997946,10.203592144986466,-4.949370384216309
0.027999999932944775,0.007346531841903925,10.239959789157341,-4.913527011871338
0.028999999980442226,0.0075878300704061985,10.275051108968611,-4.881209850311279
0.030000000027939677,0.007762327790260315,10.308952660644293,-4.85847282409668
0.030999999959021807,0.008040621876716614,10.341742483467284,-4.823248863220215
0.03200000000651926,0.008134009316563606,10.373491181781864,-4.81170129776001
0.03299999993760139,0.00818904023617506,10.404262840448617,-4.804958820343018
0.03399999998509884,0.008346027694642544,10.4341158035983,-4.7859697341918945
0.03500000003259629,0.00845987070351839,10.46310334047155,-4.772421360015869
0.03599999996367842,0.008603190071880817,10.491274217438248,-4.755622386932373
0.03700000001117587,0.008781745098531246,10.51867319162636,-4.735080242156982
0.037999999942258,0.008915296755731106,10.545341438708522,-4.719986915588379
0.03899999998975545,0.00912708230316639,10.571316925111784,-4.69650936126709
0.0400000000372529,0.009323888458311558,10.596634733096073,-4.675175666809082
0.04099999996833503,0.009554256685078144,10.621327345686446,-4.650768280029297
0.042000000015832484,0.009644563309848309,10.645424897265505,-4.641360759735107
0.04299999994691461,0.009860879741609097,10.668955394675699,-4.619179725646973
0.043999999994412065,0.01000832300633192,10.691944912900398,-4.6043381690979
0.045000000041909516,0.010213307105004787,10.714417768752456,-4.58406400680542
0.045999999972991645,0.01035226322710514,10.736396675471232,-4.570549964904785
0.0470000000204891,0.010448824614286423,10.757902880692196,-4.56126594543457
0.047999999951571226,0.010572380386292934,10.778956289890028,-4.549510478973389
0.04899999999906868,0.010671023279428482,10.799575577092764,-4.540223121643066
0.04999999993015081,0.010875158943235874,10.819778284410283,-4.521274089813232
0.05099999997764826,0.011099835857748985,10.839580911706463,-4.500824928283691
0.05200000002514571,0.011268160305917263,10.858998997563564,-4.485774040222168
0.05299999995622784,0.011422431096434593,10.87804719253426,-4.4721760749816895
0.05400000000372529,0.011590073816478252,10.896739325546411,-4.457606315612793
0.05499999993480742,0.011590821668505669,10.915088464214607,-4.4575419425964355
0.05599999998230487,0.011698165908455849,10.933106969717286,-4.4483232498168945
0.05700000002980232,0.011868179775774479,10.950806546816688,-4.433894634246826
0.05799999996088445,0.011981895193457603,10.968198289528557,-4.424358367919922
0.0590000000083819,0.01226762868463993,10.985292722887856,-4.400791168212891
0.05999999993946403,0.012502893805503845,11.002099841204238,-4.3817949295043945
0.060999999986961484,0.01262101624161005,11.018629143155449,-4.372391700744629
0.062000000034458935,0.012779579497873783,11.03488966402723,-4.3599066734313965
0.06299999996554106,0.012824009172618389,11.05089000537367,-4.356436252593994
0.06400000001303852,0.012802468612790108,11.06663836234181,-4.35811710357666
0.06499999994412065,0.012898681685328484,11.082142548877775,-4.350630283355713
0.0659999999916181,0.01306399330496788,11.097410021008562,-4.337895393371582
0.06700000003911555,0.013180491514503956,11.112447898373103,-4.329017639160156
0.06799999997019768,0.01340272556990385,11.127262984158243,-4.312297344207764
0.06900000001769513,0.013544999994337559,11.141861783579396,-4.3017377853393555
0.06999999994877726,0.01366195734590292,11.156250521031495,-4.293139934539795
0.07099999999627471,0.01386222057044506,11.170435156023453,-4.27858829498291
0.07200000004377216,0.013940094038844109,11.184421397998193,-4.272985935211182
0.07299999997485429,0.014079354703426361,11.198214720130528,-4.263045787811279
0.07400000002235174,0.014096703380346298,11.211820372186306,-4.261814117431641
0.07499999995343387,0.014249024912714958,11.225243392518447,-4.2510666847229
0.07600000000093132,0.014466231688857079,11.238488619268468,-4.23593807220459
0.07699999993201345,0.01458114106208086,11.251560700835821,-4.228026390075684
0.0779999999795109,0.01474762987345457,11.26446410567173,-4.216672897338867
0.07900000002700835,0.014839463867247105,11.27720313144916,-4.210464954376221
0.07999999995809048,0.014878890477120876,11.289781913656018,-4.2078118324279785
0.08100000000558794,0.014946105889976025,11.302204433654575,-4.203304290771484
0.08199999993667006,0.015161151997745037,11.314474526246391,-4.189018726348877
0.08299999998416752,0.015221452340483665,11.326595886778735,-4.185049533843994
0.08400000003166497,0.015366296283900738,11.33857207782545,-4.175578594207764
0.0849999999627471,0.01548683363944292,11.350406535472453,-4.167765140533447
0.08600000001024455,0.015730857849121094,11.362102575235644,-4.152131080627441
0.08699999994132668,0.0158388614654541,11.37366339763672,-4.145288944244385
0.08799999998882413,0.01595897600054741,11.385092093460344,-4.1377339363098145
0.08900000003632158,0.01619674637913704,11.396391648714276,-4.1229448318481445
0.08999999996740371,0.0162642952054739,11.407564949312402,-4.118782997131348
0.09100000001490116,0.01635460928082466,11.418614785498987,-4.113245487213135
0.09199999994598329,0.016426509246230125,11.429543856031177,-4.108859062194824
0.09299999999348074,0.016605088487267494,11.440354772135393,-4.09804630279541
0.0940000000409782,0.016609638929367065,11.451050061252142,-4.097772121429443
0.09499999997206032,0.01668853871524334,11.461632170582678,-4.093033313751221
0.09600000001955777,0.01664268597960472,11.472103470449973,-4.095784664154053
0.0969999999506399,0.016867229714989662,11.48246625748552,-4.082382678985596
0.09799999999813735,0.0168647188693285,11.49272275765271,-4.082531452178955
0.09899999992921948,0.017017008736729622,11.502875129116727,-4.07354211807251
0.19900000002235174,0.025868501514196396,11.512925464970229,-3.654729127883911
0.2989999999990687,0.03277101367712021,11.522875795823397,-3.418210983276367
0.3989999999757856,0.03921119123697281,11.532728092266408,-3.238793134689331
0.49899999995250255,0.0442645438015461,11.542484267211773,-3.1175713539123535
0.5989999999292195,0.04864578694105148,11.55214617812351,-3.0231900215148926
0.6990000000223517,0.052305739372968674,11.56171562913966,-2.9506492614746094
0.7989999999990687,0.056809812784194946,11.571194373094205,-2.868046283721924
0.8989999999757856,0.06161312013864517,11.580584113444043,-2.7868804931640625
0.9989999999525025,0.06360524147748947,11.589886506106357,-2.7550594806671143
1.0989999999292195,0.06673891842365265,11.59910316121128,-2.7069671154022217
1.1990000000223517,0.07171088457107544,11.608235644774552,-2.635112762451172
1.2989999999990687,0.07605021446943283,11.617285480294472,-2.5763614177703857
1.3989999999757856,0.07802030444145203,11.626254150277232,-2.550786256790161
1.4989999999525025,0.08283144980669022,11.635143097694478,-2.4909474849700928
1.5989999999292195,0.08838483691215515,11.643953727376633,-2.4260549545288086
1.6990000000223517,0.09006611257791519,11.652687407345388,-2.4072113037109375
1.7989999999990687,0.09372564405202866,11.661345470088502,-2.3673834800720215
1.8989999999757856,0.09529062360525131,11.669929213779893,-2.3508238792419434
1.9989999999525025,0.09655308723449707,11.678439903447801,-2.3376622200012207
2.0989999999292195,0.10057847201824188,11.686878772093667,-2.2968170642852783
2.1990000000223517,0.10585939139127731,11.695247021764184,-2.2456436157226562
2.2989999999990687,0.10975851863622665,11.703545824578878,-2.20947265625
2.3989999999757856,0.11067436635494232,11.711776323715394,-2.2011630535125732
2.4989999999525025,0.11321227252483368,11.719939634354555,-2.17849063873291
2.5989999999292195,0.11783692985773087,11.728036844587175,-2.138453483581543
2.6990000000223517,0.11758925020694733,11.736069016284437,-2.1405577659606934
2.7989999999990687,0.12246648967266083,11.744037185933616,-2.0999178886413574
2.8989999999757856,0.12212550640106201,11.751942365440728,-2.102705955505371
2.9989999999525025,0.12454494088888168,11.759785542901755,-2.0830886363983154
3.0989999999292195,0.12506332993507385,11.76756768334381,-2.078935146331787
3.1990000000223517,0.12719616293907166,11.77528972943772,-2.0620248317718506
3.2989999999990687,0.13108773529529572,11.782952602183288,-2.031888484954834
3.3989999999757856,0.13317453861236572,11.790557201568507,-2.01609468460083
3.4989999999525025,0.13845637440681458,11.79810440720389,-1.9772000312805176
3.5989999999292195,0.1427336037158966,11.805595078933049,-1.9467753171920776
3.6990000000223517,0.14290599524974823,11.813030057420567,-1.9455682039260864
3.7989999999990687,0.14410395920276642,11.820410164718188,-1.9372203350067139
3.8989999999757856,0.1484777182340622,11.827736204810263,-1.9073203802108765
3.9989999999525025,0.15063171088695526,11.835008964139341,-1.8929173946380615
4.0989999999292195,0.15295763313770294,11.842229212112828,-1.877594232559204
4.199000000022352,0.1581544429063797,11.84939770159144,-1.8441832065582275
4.298999999999069,0.16302838921546936,11.856515169360305,-1.8138309717178345
4.398999999975786,0.16310718655586243,11.863582336583399,-1.8133476972579956
4.4989999999525025,0.167358860373497,11.870599909242044,-1.7876149415969849
4.5989999999292195,0.1669781506061554,11.877568578558138,-1.789892315864563
4.699000000022352,0.1705944687128067,11.884489021402711,-1.7684661149978638
4.798999999999069,0.17203575372695923,11.891361900690473,-1.7600529193878174
4.898999999975786,0.17407295107841492,11.898187865760873,-1.7482807636260986
4.9989999999525025,0.1751798540353775,11.904967552746252,-1.7419421672821045
5.0989999999292195,0.17519253492355347,11.911701584927597,-1.7418696880340576
5.199000000022352,0.17970110476016998,11.918390573078392,-1.7164603471755981
5.298999999999069,0.182647705078125,11.925035115797062,-1.7001961469650269
5.398999999975786,0.18558454513549805,11.931635799828413,-1.6842447519302368
5.4989999999525025,0.18477778136730194,11.938193200374572,-1.6886013746261597
5.5989999999292195,0.18720221519470215,11.944707881395766,-1.6755659580230713
5.699000000022352,0.19299884140491486,11.951180395901384,-1.645071029663086
5.798999999999069,0.19595780968666077,11.957611286231675,-1.6298558712005615
5.898999999975786,0.19821797311306,11.964001084330445,-1.6183879375457764
5.9989999999525025,0.1983506828546524,11.970350312009105,-1.6177186965942383
6.0989999999292195,0.1991996169090271,11.976659481202368,-1.613447904586792
6.199000000022352,0.20266897976398468,11.982929094215963,-1.5961812734603882
6.298999999999069,0.20435859262943268,11.9891596439666,-1.5878790616989136
6.398999999975786,0.20794682204723358,11.99535161421452,-1.5704729557037354
6.4989999999525025,0.21546460688114166,12.0015054797889,-1.5349586009979248
6.5989999999292195,0.21543195843696594,12.007621706806335,-1.5351101160049438
6.699000000022352,0.21889528632164001,12.013700752882718,-1.5191618204116821
6.798999999999069,0.21907968819141388,12.01974306733868,-1.5183197259902954
6.898999999975786,0.22197145223617554,12.025749091398891,-1.5052064657211304
6.9989999999525025,0.2256215363740921,12.031719258385396,-1.4888962507247925
7.0989999999292195,0.2263522446155548,12.037653993905211,-1.4856629371643066
7.199000000022352,0.22711899876594543,12.043553716032399,-1.48228120803833
7.298999999999069,0.22826585173606873,12.049418835484797,-1.477244257926941
7.398999999975786,0.23006251454353333,12.05524975579559,-1.4694042205810547
7.4989999999525025,0.23052896559238434,12.061046873479915,-1.4673787355422974
7.5989999999292195,0.23222441971302032,12.066810578196666,-1.4600510597229004
7.699000000022352,0.23996232450008392,12.072541252905651,-1.4272733926773071
7.798999999999069,0.24085471034049988,12.078239274020289,-1.4235613346099854
7.898999999975786,0.2401426136493683,12.083905011555967,-1.4265222549438477
7.9989999999525025,0.2453950047492981,12.089538829274222,-1.4048861265182495
8.09899999992922,0.24999649822711945,12.095141084822892,-1.3863084316253662
8.199000000022352,0.2560361921787262,12.100712129872347,-1.3624364137649536
8.298999999999069,0.2593800127506256,12.106252310247962,-1.3494610786437988
8.398999999975786,0.26302987337112427,12.111761966058932,-1.335487723350525
8.498999999952503,0.26272717118263245,12.117241431823558,-1.336639165878296
8.59899999992922,0.2626109719276428,12.122691036591123,-1.3370815515518188
8.699000000022352,0.2648632824420929,12.128111104060462,-1.3285415172576904
8.798999999999069,0.26390233635902405,12.133501952695338,-1.3321762084960938
8.898999999975786,0.2639527916908264,12.138863895836725,-1.3319849967956543
8.998999999952503,0.2672583758831024,12.144197241812087,-1.3195394277572632
9.09899999992922,0.2668142020702362,12.14950229404178,-1.3212027549743652
9.199000000022352,0.26732754707336426,12.154779351142624,-1.3192806243896484
9.298999999999069,0.2668611705303192,12.160028707028767,-1.3210266828536987
9.398999999975786,0.2676694393157959,12.165250651009918,-1.318002462387085
9.498999999952503,0.27063536643981934,12.170445467887022,-1.3069828748703003
9.59899999992922,0.27632561326026917,12.175613438045465,-1.2861753702163696
9.699000000022352,0.279652863740921,12.180754837545884,-1.274206280708313
9.798999999999069,0.28703948855400085,12.185869938212655,-1.2481354475021362
9.898999999975786,0.28562474250793457,12.190959007720126,-1.253076434135437
9.998999999952503,0.2901572287082672,12.196022309676673,-1.2373323440551758
10.09899999992922,0.2887614369392395,12.201060103706629,-1.2421543598175049
10.199000000022352,0.29064318537712097,12.206072645530174,-1.235658884048462
10.298999999999069,0.2903456687927246,12.211060187041213,-1.2366831302642822
10.398999999975786,0.2953634560108185,12.216022976383341,-1.2195485830307007
10.498999999952503,0.29965344071388245,12.220961258023925,-1.2051286697387695
10.59899999992922,0.30498233437538147,12.225875272826354,-1.1875014305114746
10.699000000022352,0.3054540157318115,12.230765258120545,-1.1859560012817383
10.798999999999069,0.30548837780952454,12.235631447771718,-1.185843586921692
10.898999999975786,0.30836769938468933,12.240474072247506,-1.1764624118804932
10.998999999952503,0.309673011302948,12.245293358683455,-1.1722383499145508
11.09899999992922,0.31079694628715515,12.250089530946948,-1.168615460395813
11.199000000022352,0.31521284580230713,12.254862809699606,-1.1545071601867676
11.298999999999069,0.3199107348918915,12.259613412458204,-1.1397132873535156
11.398999999975786,0.3199811577796936,12.26434155365415,-1.1394932270050049
11.498999999952503,0.31737908720970154,12.269047444691562,-1.147658348083496
11.59899999992922,0.31782960891723633,12.273731294003989,-1.1462398767471313
11.699000000022352,0.3195827305316925,12.2783933071098,-1.1407390832901
11.798999999999069,0.3281122148036957,12.283033686666302,-1.1143996715545654
11.898999999975786,0.328772634267807,12.287652632522597,-1.1123888492584229
11.998999999952503,0.33627769351005554,12.292250341771226,-1.089818000793457
12.09899999992922,0.3370247483253479,12.296827008798639,-1.0875989198684692
12.199000000022352,0.3401465117931366,12.301382825334498,-1.0783787965774536
12.298999999999069,0.34217435121536255,12.30591798049989,-1.072434902191162
12.398999999975786,0.3437417149543762,12.310432660854417,-1.0678647756576538
12.498999999952503,0.34773173928260803,12.314927050442256,-1.0563240051269531
12.59899999992922,0.34693673253059387,12.319401330837177,-1.0586128234863281
12.699000000022352,0.34737130999565125,12.323855681186558,-1.0573610067367554
12.798999999999069,0.35496655106544495,12.328290278254423,-1.0357316732406616
12.898999999975786,0.35745564103126526,12.332705296463539,-1.0287439823150635
12.998999999952503,0.3607627749443054,12.337100907936577,-1.019534707069397
13.09899999992922,0.36458081007003784,12.341477282536376,-1.0090070962905884
13.199000000022352,0.369387686252594,12.345834587905333,-0.9959085583686829
13.298999999999069,0.37150469422340393,12.35017298950393,-0.9901937246322632
13.398999999975786,0.37397435307502747,12.354492650648448,-0.9835680723190308
13.498999999952503,0.3780241310596466,12.358793732547838,-0.9727972745895386
13.59899999992922,0.37788811326026917,12.363076394339839,-0.9731571078300476
13.699000000022352,0.3850290775299072,12.367340793126296,-0.9544364213943481
13.798999999999069,0.3868892192840576,12.371587084007746,-0.9496169090270996
13.898999999975786,0.3892480134963989,12.375815420117268,-0.9435385465621948
13.998999999952503,0.392873078584671,12.380025952653611,-0.9342687129974365
14.09899999992922,0.39506974816322327,12.384218830913648,-0.9286929368972778
14.199000000022352,0.40229660272598267,12.388394202324129,-0.9105656147003174
14.298999999999069,0.4078024923801422,12.392552212472792,-0.8969722986221313
14.398999999975786,0.41079092025756836,12.396693005138824,-0.8896709084510803
14.498999999952503,0.41533705592155457,12.400816722322686,-0.8786649107933044
14.59899999992922,0.4166959822177887,12.404923504275338,-0.8753983974456787
14.699000000022352,0.4169292151927948,12.409013489526863,-0.8748388290405273
14.798999999999069,0.42178887128829956,12.4130868149145,-0.8632503747940063
14.898999999975786,0.4295983612537384,12.417143615610113,-0.8449045419692993
14.998999999952503,0.4378751516342163,12.421184025147118,-0.8258214592933655
15.09899999992922,0.4361457824707031,12.425208175446844,-0.8297787308692932
15.199000000022352,0.4404040575027466,12.429216196844383,-0.8200626373291016
15.298999999999069,0.45237821340560913,12.43320821811392,-0.7932366728782654
15.398999999975786,0.4503503143787384,12.437184366493561,-0.7977294921875
15.498999999952503,0.4571077525615692,12.441144767709657,-0.7828361392021179
15.59899999992922,0.4584349989891052,12.445089546000673,-0.7799367904663086
15.699000000022352,0.46121111512184143,12.449018824140563,-0.7738993763923645
15.798999999999069,0.46721047163009644,12.4529327234617,-0.7609754204750061
15.898999999975786,0.47005775570869446,12.456831363877356,-0.7548997402191162
