Time [ps],MSD Values,Log Time,Log MSD 
0.0,0.0,-inf,-inf
0.0009999999310821295,0.000399413809645921,6.907755278982137,-7.825512409210205
0.001999999978579581,0.0007932166336104274,7.600902459542082,-7.139414310455322
0.003000000026077032,0.0011483574053272605,8.006367567650246,-6.76942253112793
0.003999999957159162,0.0015106030041351914,8.294049640102028,-6.495246410369873
0.005000000004656613,0.0018748146248981357,8.517193191416238,-6.279245376586914
0.005999999935738742,0.0021974619012326,8.699514748210191,-6.120452404022217
0.006999999983236194,0.0025129292625933886,8.85366542803745,-5.986306190490723
0.008000000030733645,0.0027904827147722244,8.987196820661973,-5.881540775299072
0.008999999961815774,0.003059410024434328,9.104979856318357,-5.7895331382751465
0.010000000009313226,0.0033301645889878273,9.210340371976184,-5.704733371734619
0.010999999940395355,0.003582250326871872,9.305650551780507,-5.631763935089111
0.011999999987892807,0.003802022198215127,9.392661928770137,-5.5722222328186035
0.013000000035390258,0.004065916873514652,9.472704636443673,-5.505115985870361
0.013999999966472387,0.004327963571995497,9.546812608597396,-5.442657947540283
0.015000000013969839,0.0046032024547457695,9.615805480084347,-5.381002902984619
0.015999999945051968,0.004822683986276388,9.680344001221918,-5.3344244956970215
0.01699999999254942,0.005035122856497765,9.740968623038354,-5.291317462921143
0.01800000004004687,0.005336003843694925,9.798127036878302,-5.233278274536133
0.018999999971129,0.005558293778449297,9.852194258148577,-5.1924638748168945
0.02000000001862645,0.005732384044677019,9.903487552536127,-5.161623954772949
0.02099999994970858,0.005961267743259668,9.95227771670556,-5.122472286224365
0.021999999997206032,0.0062105911783874035,9.998797732340453,-5.081499099731445
0.022999999928288162,0.006413350813090801,10.043249494911286,-5.049373626708984
0.023999999975785613,0.006587191019207239,10.085809109330082,-5.022628307342529
0.025000000023283064,0.006781642325222492,10.126631103850338,-4.993535995483398
0.025999999954365194,0.007017537020146847,10.165851817003619,-4.959342956542969
0.027000000001862645,0.007191393990069628,10.203592144986466,-4.93487024307251
0.027999999932944775,0.00744770048186183,10.239959789157341,-4.899849891662598
0.028999999980442226,0.007616588845849037,10.275051108968611,-4.877426624298096
0.030000000027939677,0.007817751727998257,10.308952660644293,-4.851358413696289
0.030999999959021807,0.007965360768139362,10.341742483467284,-4.832653045654297
0.03200000000651926,0.008215820416808128,10.373491181781864,-4.801693916320801
0.03299999993760139,0.008423862047493458,10.404262840448617,-4.776686668395996
0.03399999998509884,0.00850418210029602,10.4341158035983,-4.767197132110596
0.03500000003259629,0.008698459714651108,10.46310334047155,-4.744609355926514
0.03599999996367842,0.008896645158529282,10.491274217438248,-4.722081184387207
0.03700000001117587,0.009046212770044804,10.51867319162636,-4.705409049987793
0.037999999942258,0.00925005879253149,10.545341438708522,-4.6831254959106445
0.03899999998975545,0.009306458756327629,10.571316925111784,-4.677046775817871
0.0400000000372529,0.009562184102833271,10.596634733096073,-4.649939060211182
0.04099999996833503,0.009767438285052776,10.621327345686446,-4.628701210021973
0.042000000015832484,0.010016576386988163,10.645424897265505,-4.603513717651367
0.04299999994691461,0.010133556090295315,10.668955394675699,-4.591903209686279
0.043999999994412065,0.01036066934466362,10.691944912900398,-4.569738388061523
0.045000000041909516,0.010576627217233181,10.714417768752456,-4.549108505249023
0.045999999972991645,0.010730204172432423,10.736396675471232,-4.534692764282227
0.0470000000204891,0.010743815451860428,10.757902880692196,-4.5334248542785645
0.047999999951571226,0.010926749557256699,10.778956289890028,-4.516541481018066
0.04899999999906868,0.011134265922009945,10.799575577092764,-4.497727870941162
0.04999999993015081,0.011246377602219582,10.819778284410283,-4.487709045410156
0.05099999997764826,0.01146676391363144,10.839580911706463,-4.4683027267456055
0.05200000002514571,0.011552994139492512,10.858998997563564,-4.460810661315918
0.05299999995622784,0.01174092572182417,10.87804719253426,-4.444674491882324
0.05400000000372529,0.011859213002026081,10.896739325546411,-4.434650421142578
0.05499999993480742,0.01186433993279934,10.915088464214607,-4.434217929840088
0.05599999998230487,0.012064889073371887,10.933106969717286,-4.417455673217773
0.05700000002980232,0.012191732414066792,10.950806546816688,-4.406997203826904
0.05799999996088445,0.01245594397187233,10.968198289528557,-4.385557174682617
0.0590000000083819,0.01251289714127779,10.985292722887856,-4.380995273590088
0.05999999993946403,0.012666996568441391,11.002099841204238,-4.368755340576172
0.060999999986961484,0.01268417201936245,11.018629143155449,-4.367400169372559
0.062000000034458935,0.012862777337431908,11.03488966402723,-4.35341739654541
0.06299999996554106,0.013069619424641132,11.05089000537367,-4.337464809417725
0.06400000001303852,0.013209712691605091,11.06663836234181,-4.326802730560303
0.06499999994412065,0.013359221629798412,11.082142548877775,-4.315548419952393
0.0659999999916181,0.013437255285680294,11.097410021008562,-4.3097243309021
0.06700000003911555,0.013586598448455334,11.112447898373103,-4.298671245574951
0.06799999997019768,0.013688398525118828,11.127262984158243,-4.2912068367004395
0.06900000001769513,0.013742596842348576,11.141861783579396,-4.287254810333252
0.06999999994877726,0.013870199210941792,11.156250521031495,-4.278012752532959
0.07099999999627471,0.014009883627295494,11.170435156023453,-4.26799201965332
0.07200000004377216,0.014202598482370377,11.184421397998193,-4.254330158233643
0.07299999997485429,0.01424046978354454,11.198214720130528,-4.251667499542236
0.07400000002235174,0.014349373988807201,11.211820372186306,-4.244049072265625
0.07499999995343387,0.014537366107106209,11.225243392518447,-4.231032848358154
0.07600000000093132,0.014594975858926773,11.238488619268468,-4.227077960968018
0.07699999993201345,0.014773922972381115,11.251560700835821,-4.21489143371582
0.0779999999795109,0.014850646257400513,11.26446410567173,-4.209712028503418
0.07900000002700835,0.015045472420752048,11.27720313144916,-4.196678161621094
0.07999999995809048,0.015114185400307178,11.289781913656018,-4.192121505737305
0.08100000000558794,0.01524222269654274,11.302204433654575,-4.183685779571533
0.08199999993667006,0.015390225686132908,11.314474526246391,-4.174022674560547
0.08299999998416752,0.015539044514298439,11.326595886778735,-4.16439962387085
0.08400000003166497,0.01575566828250885,11.33857207782545,-4.15055513381958
0.0849999999627471,0.015915455296635628,11.350406535472453,-4.140464782714844
0.08600000001024455,0.016116518527269363,11.362102575235644,-4.127910614013672
0.08699999994132668,0.01630314067006111,11.37366339763672,-4.116397380828857
0.08799999998882413,0.01640958897769451,11.385092093460344,-4.109889507293701
0.08900000003632158,0.016390152275562286,11.396391648714276,-4.111074447631836
0.08999999996740371,0.016501959413290024,11.407564949312402,-4.104276180267334
0.09100000001490116,0.016600139439105988,11.418614785498987,-4.098344326019287
0.09199999994598329,0.016710314899683,11.429543856031177,-4.091729164123535
0.09299999999348074,0.016706403344869614,11.440354772135393,-4.091963291168213
0.0940000000409782,0.016635792329907417,11.451050061252142,-4.096198558807373
0.09499999997206032,0.016795756295323372,11.461632170582678,-4.0866289138793945
0.09600000001955777,0.016935894265770912,11.472103470449973,-4.078320026397705
0.0969999999506399,0.017053820192813873,11.48246625748552,-4.071381092071533
0.09799999999813735,0.017298266291618347,11.49272275765271,-4.0571489334106445
0.09899999992921948,0.017291495576500893,11.502875129116727,-4.057540416717529
0.19900000002235174,0.026312556117773056,11.512925464970229,-3.637709140777588
0.2989999999990687,0.0321650505065918,11.522875795823397,-3.4368748664855957
0.3989999999757856,0.03847421705722809,11.532728092266408,-3.2577669620513916
0.49899999995250255,0.04422221705317497,11.542484267211773,-3.118527889251709
0.5989999999292195,0.05022672563791275,11.55214617812351,-2.991208076477051
0.6990000000223517,0.0527581050992012,11.56171562913966,-2.94203782081604
0.7989999999990687,0.056237779557704926,11.571194373094205,-2.878166437149048
0.8989999999757856,0.05994829162955284,11.580584113444043,-2.814272880554199
0.9989999999525025,0.0633242055773735,11.589886506106357,-2.7594876289367676
1.0989999999292195,0.06636955589056015,11.59910316121128,-2.7125167846679688
1.1990000000223517,0.07174333184957504,11.608235644774552,-2.634660243988037
1.2989999999990687,0.07304753363132477,11.617285480294472,-2.616644859313965
1.3989999999757856,0.07586885243654251,11.626254150277232,-2.578748941421509
1.4989999999525025,0.08009824901819229,11.635143097694478,-2.524501323699951
1.5989999999292195,0.08482096344232559,11.643953727376633,-2.467212677001953
1.6990000000223517,0.08795423060655594,11.652687407345388,-2.430938720703125
1.7989999999990687,0.08989989757537842,11.661345470088502,-2.4090585708618164
1.8989999999757856,0.09215129911899567,11.669929213779893,-2.3843235969543457
1.9989999999525025,0.09596429020166397,11.678439903447801,-2.3437790870666504
2.0989999999292195,0.09791506826877594,11.686878772093667,-2.323654890060425
2.1990000000223517,0.10260745882987976,11.695247021764184,-2.2768447399139404
2.2989999999990687,0.10270781069993973,11.703545824578878,-2.275866985321045
2.3989999999757856,0.10762783139944077,11.711776323715394,-2.2290759086608887
2.4989999999525025,0.1101461797952652,11.719939634354555,-2.205946922302246
2.5989999999292195,0.11567376554012299,11.728036844587175,-2.1569814682006836
2.6990000000223517,0.11634623259305954,11.736069016284437,-2.1511847972869873
2.7989999999990687,0.11695089191198349,11.744037185933616,-2.146001100540161
2.8989999999757856,0.11828026920557022,11.751942365440728,-2.1346983909606934
2.9989999999525025,0.11815701425075531,11.759785542901755,-2.1357409954071045
3.0989999999292195,0.1201048344373703,11.76756768334381,-2.1193902492523193
3.1990000000223517,0.12273040413856506,11.77528972943772,-2.0977652072906494
3.2989999999990687,0.12642650306224823,11.782952602183288,-2.068094253540039
3.3989999999757856,0.13017866015434265,11.790557201568507,-2.0388474464416504
3.4989999999525025,0.13374020159244537,11.79810440720389,-2.0118560791015625
3.5989999999292195,0.13673527538776398,11.805595078933049,-1.9897085428237915
3.6990000000223517,0.13706819713115692,11.813030057420567,-1.9872766733169556
3.7989999999990687,0.1366344690322876,11.820410164718188,-1.9904460906982422
3.8989999999757856,0.1401531845331192,11.827736204810263,-1.9650192260742188
3.9989999999525025,0.14402616024017334,11.835008964139341,-1.937760353088379
4.0989999999292195,0.14646734297275543,11.842229212112828,-1.9209527969360352
4.199000000022352,0.14579716324806213,11.84939770159144,-1.9255388975143433
4.298999999999069,0.14691473543643951,11.856515169360305,-1.917902946472168
4.398999999975786,0.1477743238210678,11.863582336583399,-1.9120689630508423
4.4989999999525025,0.151870995759964,11.870599909242044,-1.8847237825393677
4.5989999999292195,0.15762701630592346,11.877568578558138,-1.8475236892700195
4.699000000022352,0.15540693700313568,11.884489021402711,-1.861708164215088
4.798999999999069,0.16127556562423706,11.891361900690473,-1.8246407508850098
4.898999999975786,0.16311194002628326,11.898187865760873,-1.8133184909820557
4.9989999999525025,0.1662253588438034,11.904967552746252,-1.7944108247756958
5.0989999999292195,0.16883277893066406,11.911701584927597,-1.7788465023040771
5.199000000022352,0.17285603284835815,11.918390573078392,-1.755296230316162
5.298999999999069,0.17448201775550842,11.925035115797062,-1.7459335327148438
5.398999999975786,0.17589636147022247,11.931635799828413,-1.7378603219985962
5.4989999999525025,0.18009309470653534,11.938193200374572,-1.7142813205718994
5.5989999999292195,0.17953228950500488,11.944707881395766,-1.717400312423706
5.699000000022352,0.1840382218360901,11.951180395901384,-1.692611813545227
5.798999999999069,0.1891939342021942,11.957611286231675,-1.6649826765060425
5.898999999975786,0.19059200584888458,11.964001084330445,-1.6576201915740967
5.9989999999525025,0.1883838176727295,11.970350312009105,-1.669273853302002
6.0989999999292195,0.18895775079727173,11.976659481202368,-1.6662318706512451
6.199000000022352,0.18895485997200012,11.982929094215963,-1.6662471294403076
6.298999999999069,0.19423243403434753,11.9891596439666,-1.6386997699737549
6.398999999975786,0.19598287343978882,11.99535161421452,-1.6297279596328735
6.4989999999525025,0.20142439007759094,12.0015054797889,-1.6023411750793457
6.5989999999292195,0.20597483217716217,12.007621706806335,-1.5800013542175293
6.699000000022352,0.20577721297740936,12.013700752882718,-1.5809612274169922
6.798999999999069,0.20838716626167297,12.01974306733868,-1.5683575868606567
6.898999999975786,0.21259534358978271,12.025749091398891,-1.5483647584915161
6.9989999999525025,0.21541227400302887,12.031719258385396,-1.5352015495300293
7.0989999999292195,0.21507690846920013,12.037653993905211,-1.536759614944458
7.199000000022352,0.21803167462348938,12.043553716032399,-1.5231149196624756
7.298999999999069,0.21991850435733795,12.049418835484797,-1.514498233795166
7.398999999975786,0.21975243091583252,12.05524975579559,-1.5152536630630493
7.4989999999525025,0.2221246063709259,12.061046873479915,-1.5045167207717896
7.5989999999292195,0.22166574001312256,12.066810578196666,-1.5065847635269165
7.699000000022352,0.22564305365085602,12.072541252905651,-1.4888010025024414
7.798999999999069,0.22864575684070587,12.078239274020289,-1.475581407546997
7.898999999975786,0.23260213434696198,12.083905011555967,-1.4584258794784546
7.9989999999525025,0.2372160404920578,12.089538829274222,-1.4387840032577515
8.09899999992922,0.23641906678676605,12.095141084822892,-1.4421494007110596
8.199000000022352,0.24361278116703033,12.100712129872347,-1.4121752977371216
8.298999999999069,0.24816788733005524,12.106252310247962,-1.3936498165130615
8.398999999975786,0.24516013264656067,12.111761966058932,-1.405843734741211
8.498999999952503,0.24579910933971405,12.117241431823558,-1.40324068069458
8.59899999992922,0.24800953269004822,12.122691036591123,-1.3942880630493164
8.699000000022352,0.24797001481056213,12.128111104060462,-1.3944474458694458
8.798999999999069,0.24974031746387482,12.133501952695338,-1.387333631515503
8.898999999975786,0.25215524435043335,12.138863895836725,-1.3777103424072266
8.998999999952503,0.25394728779792786,12.144197241812087,-1.3706285953521729
9.09899999992922,0.2568356692790985,12.14950229404178,-1.3593188524246216
9.199000000022352,0.2573992609977722,12.154779351142624,-1.3571268320083618
9.298999999999069,0.25735417008399963,12.160028707028767,-1.3573020696640015
9.398999999975786,0.2609981894493103,12.165250651009918,-1.343241810798645
9.498999999952503,0.2624911367893219,12.170445467887022,-1.3375380039215088
9.59899999992922,0.2628115117549896,12.175613438045465,-1.3363181352615356
9.699000000022352,0.2643567621707916,12.180754837545884,-1.3304556608200073
9.798999999999069,0.26697126030921936,12.185869938212655,-1.320614218711853
9.898999999975786,0.26769837737083435,12.190959007720126,-1.3178943395614624
9.998999999952503,0.27292418479919434,12.196022309676673,-1.2985612154006958
10.09899999992922,0.27404358983039856,12.201060103706629,-1.2944681644439697
10.199000000022352,0.27352824807167053,12.206072645530174,-1.296350359916687
10.298999999999069,0.27612245082855225,12.211060187041213,-1.286910891532898
10.398999999975786,0.27542346715927124,12.216022976383341,-1.2894455194473267
10.498999999952503,0.2791275680065155,12.220961258023925,-1.2760863304138184
10.59899999992922,0.2794608473777771,12.225875272826354,-1.274893045425415
10.699000000022352,0.285491019487381,12.230765258120545,-1.2535446882247925
10.798999999999069,0.2855946123600006,12.235631447771718,-1.2531819343566895
10.898999999975786,0.28897446393966675,12.240474072247506,-1.2414169311523438
10.998999999952503,0.2947375774383545,12.245293358683455,-1.2216699123382568
11.09899999992922,0.2915799617767334,12.250089530946948,-1.2324409484863281
11.199000000022352,0.29192835092544556,12.254862809699606,-1.2312469482421875
11.298999999999069,0.2960439920425415,12.259613412458204,-1.2172472476959229
11.398999999975786,0.3007112145423889,12.26434155365415,-1.2016048431396484
11.498999999952503,0.29861292243003845,12.269047444691562,-1.2086070775985718
11.59899999992922,0.3020463287830353,12.273731294003989,-1.1971749067306519
11.699000000022352,0.30545318126678467,12.2783933071098,-1.185958743095398
11.798999999999069,0.3078743517398834,12.283033686666302,-1.1780635118484497
11.898999999975786,0.30735841393470764,12.287652632522597,-1.1797407865524292
11.998999999952503,0.30855661630630493,12.292250341771226,-1.1758499145507812
12.09899999992922,0.3150648772716522,12.296827008798639,-1.154976725578308
12.199000000022352,0.3177444338798523,12.301382825334498,-1.1465078592300415
12.298999999999069,0.3209300637245178,12.30591798049989,-1.1365320682525635
12.398999999975786,0.32171833515167236,12.310432660854417,-1.134078860282898
12.498999999952503,0.32426008582115173,12.314927050442256,-1.1262093782424927
12.59899999992922,0.3230392038822174,12.319401330837177,-1.129981517791748
12.699000000022352,0.32499393820762634,12.323855681186558,-1.1239488124847412
12.798999999999069,0.3262498080730438,12.328290278254423,-1.1200919151306152
12.898999999975786,0.3304550349712372,12.332705296463539,-1.107284665107727
12.998999999952503,0.3312314748764038,12.337100907936577,-1.1049377918243408
13.09899999992922,0.33424142003059387,12.341477282536376,-1.0958917140960693
13.199000000022352,0.338274210691452,12.345834587905333,-1.0838984251022339
13.298999999999069,0.3382795751094818,12.35017298950393,-1.0838825702667236
13.398999999975786,0.34100601077079773,12.354492650648448,-1.0758552551269531
13.498999999952503,0.3453286588191986,12.358793732547838,-1.0632586479187012
13.59899999992922,0.34320205450057983,12.363076394339839,-1.069435954093933
13.699000000022352,0.34738975763320923,12.367340793126296,-1.0573079586029053
13.798999999999069,0.34860581159591675,12.371587084007746,-1.0538134574890137
13.898999999975786,0.35246503353118896,12.375815420117268,-1.0428038835525513
13.998999999952503,0.3539641499519348,12.380025952653611,-1.0385596752166748
14.09899999992922,0.3516390323638916,12.384218830913648,-1.0451500415802002
14.199000000022352,0.35082802176475525,12.388394202324129,-1.0474591255187988
14.298999999999069,0.3532760739326477,12.392552212472792,-1.0405054092407227
14.398999999975786,0.35708481073379517,12.396693005138824,-1.0297819375991821
14.498999999952503,0.363016277551651,12.400816722322686,-1.0133075714111328
14.59899999992922,0.3631283640861511,12.404923504275338,-1.0129988193511963
14.699000000022352,0.36876794695854187,12.409013489526863,-0.9975877404212952
14.798999999999069,0.37152373790740967,12.4130868149145,-0.9901425242424011
14.898999999975786,0.3707558512687683,12.417143615610113,-0.9922114610671997
14.998999999952503,0.3709346652030945,12.421184025147118,-0.9917292594909668
15.09899999992922,0.3728097081184387,12.425208175446844,-0.986687183380127
15.199000000022352,0.37703001499176025,12.429216196844383,-0.9754304885864258
15.298999999999069,0.377727746963501,12.43320821811392,-0.9735815525054932
15.398999999975786,0.37965115904808044,12.437184366493561,-0.9685024619102478
15.498999999952503,0.38854658603668213,12.441144767709657,-0.9453421831130981
15.59899999992922,0.38660573959350586,12.445089546000673,-0.9503498673439026
15.699000000022352,0.38746270537376404,12.449018824140563,-0.9481356739997864
15.798999999999069,0.387134313583374,12.4529327234617,-0.9489835500717163
15.898999999975786,0.3883792459964752,12.456831363877356,-0.9457730054855347
