Time [ps],MSD Values,Log Time,Log MSD 
0.0,0.0,-inf,-inf
0.0009999999310821295,0.00031547065009362996,6.907755278982137,-8.061445236206055
0.001999999978579581,0.0006169778062030673,7.600902459542082,-7.390677452087402
0.003000000026077032,0.0009296855423599482,8.006367567650246,-6.980664253234863
0.003999999957159162,0.0011929756728932261,8.294049640102028,-6.73130464553833
0.005000000004656613,0.0015015113167464733,8.517193191416238,-6.501283168792725
0.005999999935738742,0.0018050357466563582,8.699514748210191,-6.317174911499023
0.006999999983236194,0.0020951400510966778,8.85366542803745,-6.168134689331055
0.008000000030733645,0.002348967595025897,8.987196820661973,-6.053779602050781
0.008999999961815774,0.00264590117149055,9.104979856318357,-5.934743404388428
0.010000000009313226,0.0028866867069154978,9.210340371976184,-5.8476457595825195
0.010999999940395355,0.003142852568998933,9.305650551780507,-5.762624263763428
0.011999999987892807,0.0034254109486937523,9.392661928770137,-5.6765336990356445
0.013000000035390258,0.0036413895431905985,9.472704636443673,-5.615389823913574
0.013999999966472387,0.003927332814782858,9.546812608597396,-5.539794921875
0.015000000013969839,0.004157152492552996,9.615805480084347,-5.482924938201904
0.015999999945051968,0.004351539071649313,9.680344001221918,-5.437225818634033
0.01699999999254942,0.004587648436427116,9.740968623038354,-5.384387969970703
0.01800000004004687,0.004809076897799969,9.798127036878302,-5.337250232696533
0.018999999971129,0.0050712572410702705,9.852194258148577,-5.28416633605957
0.02000000001862645,0.0052679721266031265,9.903487552536127,-5.246109962463379
0.02099999994970858,0.00550741096958518,9.95227771670556,-5.201660633087158
0.021999999997206032,0.00573387136682868,9.998797732340453,-5.161364555358887
0.023000000044703484,0.005924159660935402,10.043249494911286,-5.128716468811035
0.023999999975785613,0.006129930727183819,10.085809109330082,-5.094572067260742
0.025000000023283064,0.0063958847895264626,10.126631103850338,-5.052100658416748
0.025999999954365194,0.006631099618971348,10.165851817003619,-5.015984535217285
0.027000000001862645,0.006882646586745977,10.203592144986466,-4.978752136230469
0.027999999932944775,0.00714490469545126,10.239959789157341,-4.9413557052612305
0.028999999980442226,0.007412435486912727,10.275051108968611,-4.904596328735352
0.030000000027939677,0.00766467722132802,10.308952660644293,-4.871132850646973
0.030999999959021807,0.007824758067727089,10.341742483467284,-4.850462436676025
0.03200000000651926,0.008047622628509998,10.373491181781864,-4.822378635406494
0.03299999993760139,0.008274422027170658,10.404262840448617,-4.794586181640625
0.03399999998509884,0.008493097499012947,10.4341158035983,-4.768501281738281
0.03500000003259629,0.008732104673981667,10.46310334047155,-4.740748882293701
0.03599999996367842,0.008983016014099121,10.491274217438248,-4.712419509887695
0.03700000001117587,0.00917754229158163,10.51867319162636,-4.690995693206787
0.037999999942258,0.009444350376725197,10.545341438708522,-4.662338733673096
0.03899999998975545,0.009613552130758762,10.571316925111784,-4.644581317901611
0.0400000000372529,0.00982211995869875,10.596634733096073,-4.6231184005737305
0.04099999996833503,0.010058263316750526,10.621327345686446,-4.599360942840576
0.042000000015832484,0.010253001004457474,10.645424897265505,-4.5801849365234375
0.04299999994691461,0.010426160879433155,10.668955394675699,-4.563436985015869
0.043999999994412065,0.010593139566481113,10.691944912900398,-4.547548770904541
0.045000000041909516,0.010769065469503403,10.714417768752456,-4.5310773849487305
0.045999999972991645,0.010934132151305676,10.736396675471232,-4.515865802764893
0.0470000000204891,0.011048464104533195,10.757902880692196,-4.50546407699585
0.047999999951571226,0.011275186203420162,10.778956289890028,-4.4851508140563965
0.04899999999906868,0.011449943296611309,10.799575577092764,-4.469770431518555
0.04999999993015081,0.011643611826002598,10.819778284410283,-4.45299768447876
0.05099999997764826,0.011838274076581001,10.839580911706463,-4.436417579650879
0.05200000002514571,0.01199975423514843,10.858998997563564,-4.4228692054748535
0.05299999995622784,0.012117092497646809,10.87804719253426,-4.413138389587402
0.05400000000372529,0.012327582575380802,10.896739325546411,-4.395915985107422
0.05499999993480742,0.012549986131489277,10.915088464214607,-4.378035545349121
0.05599999998230487,0.012758046388626099,10.933106969717286,-4.361593246459961
0.05700000002980232,0.012917235493659973,10.950806546816688,-4.3491926193237305
0.05799999996088445,0.01314537413418293,10.968198289528557,-4.331685543060303
0.0590000000083819,0.013336115516722202,10.985292722887856,-4.31727933883667
0.05999999993946403,0.013536039739847183,11.002099841204238,-4.302399635314941
0.060999999986961484,0.013736403547227383,11.018629143155449,-4.287705898284912
0.062000000034458935,0.013950838707387447,11.03488966402723,-4.272215843200684
0.06299999996554106,0.014206345193088055,11.05089000537367,-4.254066467285156
0.06400000001303852,0.01438883412629366,11.06663836234181,-4.241302967071533
0.06499999994412065,0.014598061330616474,11.082142548877775,-4.226866722106934
0.0659999999916181,0.014764386229217052,11.097410021008562,-4.2155375480651855
0.06700000003911555,0.014900646172463894,11.112447898373103,-4.206350803375244
0.06799999997019768,0.015067276544868946,11.127262984158243,-4.195230007171631
0.06900000001769513,0.015225283801555634,11.141861783579396,-4.184797763824463
0.06999999994877726,0.015421210788190365,11.156250521031495,-4.172011375427246
0.07099999999627471,0.015499099157750607,11.170435156023453,-4.16697359085083
0.07200000004377216,0.015589036047458649,11.184421397998193,-4.161187648773193
0.07299999997485429,0.01571987383067608,11.198214720130528,-4.152829647064209
0.07400000002235174,0.015924325212836266,11.211820372186306,-4.139907360076904
0.07499999995343387,0.016106218099594116,11.225243392518447,-4.128550052642822
0.07600000000093132,0.01629946008324623,11.238488619268468,-4.116623401641846
0.07699999993201345,0.016470810398459435,11.251560700835821,-4.106165409088135
0.0779999999795109,0.016602912917733192,11.26446410567173,-4.098176956176758
0.07900000002700835,0.016789739951491356,11.27720313144916,-4.086987495422363
0.07999999995809048,0.017021942883729935,11.289781913656018,-4.073252201080322
0.08100000000558794,0.01713307946920395,11.302204433654575,-4.066744327545166
0.08199999993667006,0.017337683588266373,11.314474526246391,-4.054872989654541
0.08299999998416752,0.017499277368187904,11.326595886778735,-4.045595645904541
0.08400000003166497,0.017655901610851288,11.33857207782545,-4.036684989929199
0.0849999999627471,0.017690222710371017,11.350406535472453,-4.034743309020996
0.08600000001024455,0.017762314528226852,11.362102575235644,-4.030676364898682
0.08699999994132668,0.017938856035470963,11.37366339763672,-4.020786285400391
0.08799999998882413,0.018073271960020065,11.385092093460344,-4.0133209228515625
0.08900000003632158,0.018179304897785187,11.396391648714276,-4.007471561431885
0.08999999996740371,0.018377693369984627,11.407564949312402,-3.9966177940368652
0.09100000001490116,0.01849067024886608,11.418614785498987,-3.9904890060424805
0.09199999994598329,0.0185987688601017,11.429543856031177,-3.9846599102020264
0.09299999999348074,0.018771667033433914,11.440354772135393,-3.9754066467285156
0.0940000000409782,0.018948178738355637,11.451050061252142,-3.966047525405884
0.09499999997206032,0.019031185656785965,11.461632170582678,-3.9616763591766357
0.09600000001955777,0.01909320242702961,11.472103470449973,-3.958422899246216
0.0969999999506399,0.01925116404891014,11.48246625748552,-3.950183868408203
0.09799999999813735,0.019438449293375015,11.49272275765271,-3.940502166748047
0.0990000000456348,0.019565315917134285,11.502875129116727,-3.9339969158172607
0.19900000002235174,0.03344796970486641,11.512925464970229,-3.397764205932617
0.2989999999990687,0.04375889524817467,11.522875795823397,-3.1290602684020996
0.3989999999757856,0.0543958880007267,11.532728092266408,-2.9114668369293213
0.49899999995250255,0.0654037594795227,11.542484267211773,-2.72717547416687
0.5990000000456348,0.07409311085939407,11.55214617812351,-2.6024327278137207
0.6990000000223517,0.0830729529261589,11.56171562913966,-2.4880361557006836
0.7989999999990687,0.09105827659368515,11.571194373094205,-2.3962554931640625
0.8989999999757856,0.09935279190540314,11.580584113444043,-2.3090782165527344
0.9989999999525025,0.10533595085144043,11.589886506106357,-2.250600576400757
1.0990000000456348,0.11317145079374313,11.59910316121128,-2.178851366043091
1.1990000000223517,0.11903832107782364,11.608235644774552,-2.128309726715088
1.2989999999990687,0.1251908242702484,11.617285480294472,-2.077916145324707
1.3989999999757856,0.13269124925136566,11.626254150277232,-2.01973032951355
1.4989999999525025,0.14034819602966309,11.635143097694478,-1.963628888130188
1.5990000000456348,0.14877371490001678,11.643953727376633,-1.9053287506103516
1.6990000000223517,0.15533661842346191,11.652687407345388,-1.8621608018875122
1.7989999999990687,0.1624695062637329,11.661345470088502,-1.8172649145126343
1.8989999999757856,0.16851313412189484,11.669929213779893,-1.780741572380066
1.9989999999525025,0.17582963407039642,11.678439903447801,-1.7382397651672363
2.099000000045635,0.18381918966770172,11.686878772093667,-1.6938027143478394
2.1990000000223517,0.19175656139850616,11.695247021764184,-1.6515285968780518
2.2989999999990687,0.19564855098724365,11.703545824578878,-1.6314353942871094
2.3989999999757856,0.2028939127922058,11.711776323715394,-1.5950720310211182
2.4989999999525025,0.20881368219852448,11.719939634354555,-1.5663129091262817
2.599000000045635,0.2149258255958557,11.728036844587175,-1.5374622344970703
2.6990000000223517,0.21977218985557556,11.736069016284437,-1.515163779258728
2.7989999999990687,0.22673936188220978,11.744037185933616,-1.4839540719985962
2.8989999999757856,0.2311943620443344,11.751942365440728,-1.4644964933395386
2.9989999999525025,0.2382620871067047,11.759785542901755,-1.4343839883804321
3.099000000045635,0.24307921528816223,11.76756768334381,-1.414367914199829
3.1990000000223517,0.24915502965450287,11.77528972943772,-1.389680027961731
3.2989999999990687,0.2560168206691742,11.782952602183288,-1.3625121116638184
3.3989999999757856,0.2611774802207947,11.790557201568507,-1.3425551652908325
3.4989999999525025,0.26783880591392517,11.79810440720389,-1.3173699378967285
3.599000000045635,0.27242472767829895,11.805595078933049,-1.300392985343933
3.6990000000223517,0.27928805351257324,11.813030057420567,-1.275511622428894
3.7989999999990687,0.2847041189670563,11.820410164718188,-1.2563048601150513
3.8989999999757856,0.2923944592475891,11.827736204810263,-1.2296514511108398
3.9989999999525025,0.3002236485481262,11.835008964139341,-1.2032275199890137
4.099000000045635,0.30500832200050354,11.842229212112828,-1.1874161958694458
4.199000000022352,0.3127681314945221,11.84939770159144,-1.1622931957244873
4.298999999999069,0.314155250787735,11.856515169360305,-1.1578680276870728
4.398999999975786,0.32236766815185547,11.863582336583399,-1.132062554359436
4.4989999999525025,0.3306668996810913,11.870599909242044,-1.1066436767578125
4.599000000045635,0.3381463587284088,11.877568578558138,-1.0842764377593994
4.699000000022352,0.34315186738967896,11.884489021402711,-1.069582223892212
4.798999999999069,0.34879550337791443,11.891361900690473,-1.053269386291504
4.898999999975786,0.3543589413166046,11.898187865760873,-1.037444829940796
4.9989999999525025,0.35856860876083374,11.904967552746252,-1.0256352424621582
5.099000000045635,0.3624180853366852,11.911701584927597,-1.0149568319320679
5.199000000022352,0.3708992600440979,11.918390573078392,-0.991824746131897
5.298999999999069,0.37662315368652344,11.925035115797062,-0.9765101671218872
5.398999999975786,0.38328054547309875,11.931635799828413,-0.9589880704879761
5.4989999999525025,0.3886388838291168,11.938193200374572,-0.945104718208313
5.599000000045635,0.3921264111995697,11.944707881395766,-0.9361709952354431
5.699000000022352,0.40104472637176514,11.951180395901384,-0.9136823415756226
5.798999999999069,0.40676525235176086,11.957611286231675,-0.8995190262794495
5.898999999975786,0.41205736994743347,11.964001084330445,-0.8865926861763
5.9989999999525025,0.4211708903312683,11.970350312009105,-0.864716649055481
6.099000000045635,0.4243427813053131,11.976659481202368,-0.8572137355804443
6.199000000022352,0.4313495457172394,11.982929094215963,-0.8408365249633789
6.298999999999069,0.4374978244304657,11.9891596439666,-0.826683521270752
6.398999999975786,0.44622522592544556,11.99535161421452,-0.8069314956665039
6.4989999999525025,0.45724546909332275,12.0015054797889,-0.7825348973274231
6.599000000045635,0.46287065744400024,12.007621706806335,-0.7703076004981995
6.699000000022352,0.4640361964702606,12.013700752882718,-0.7677927017211914
6.798999999999069,0.47126391530036926,12.01974306733868,-0.7523370385169983
6.898999999975786,0.477609246969223,12.025749091398891,-0.7389623522758484
6.9989999999525025,0.48451656103134155,12.031719258385396,-0.7246036529541016
7.099000000045635,0.48792773485183716,12.037653993905211,-0.717587947845459
7.199000000022352,0.49883365631103516,12.043553716032399,-0.695482611656189
7.298999999999069,0.5007814764976501,12.049418835484797,-0.6915854215621948
7.398999999975786,0.5052044987678528,12.05524975579559,-0.6827920079231262
7.4989999999525025,0.5100013017654419,12.061046873479915,-0.6733419895172119
7.599000000045635,0.5145325660705566,12.066810578196666,-0.6644964218139648
7.699000000022352,0.5190227031707764,12.072541252905651,-0.6558076739311218
7.798999999999069,0.5220997929573059,12.078239274020289,-0.6498965620994568
7.898999999975786,0.5293452739715576,12.083905011555967,-0.6361143589019775
7.9989999999525025,0.5340624451637268,12.089538829274222,-0.6272425055503845
8.099000000045635,0.5354872345924377,12.095141084822892,-0.6245782375335693
8.199000000022352,0.5417442917823792,12.100712129872347,-0.6129611730575562
8.298999999999069,0.5468694567680359,12.106252310247962,-0.6035451889038086
8.398999999975786,0.5453026294708252,12.111761966058932,-0.6064143776893616
8.498999999952503,0.5572536587715149,12.117241431823558,-0.5847347378730774
8.599000000045635,0.5627220869064331,12.122691036591123,-0.5749694108963013
8.699000000022352,0.5750088691711426,12.128111104060462,-0.5533698201179504
8.798999999999069,0.581897497177124,12.133501952695338,-0.5414609909057617
8.898999999975786,0.5837872624397278,12.138863895836725,-0.53821861743927
8.998999999952503,0.5883048176765442,12.144197241812087,-0.5305100679397583
9.099000000045635,0.588797390460968,12.14950229404178,-0.529673159122467
9.199000000022352,0.5953850746154785,12.154779351142624,-0.5185469388961792
9.298999999999069,0.602507472038269,12.160028707028767,-0.506655216217041
9.398999999975786,0.6088665127754211,12.165250651009918,-0.4961562156677246
9.498999999952503,0.6164113879203796,12.170445467887022,-0.4838407039642334
9.599000000045635,0.6248858571052551,12.175613438045465,-0.4701862633228302
9.699000000022352,0.6309869289398193,12.180754837545884,-0.46047013998031616
9.798999999999069,0.6382899284362793,12.185869938212655,-0.4489626884460449
9.898999999975786,0.6484901905059814,12.190959007720126,-0.4331084191799164
9.998999999952503,0.6524820923805237,12.196022309676673,-0.42697158455848694
10.099000000045635,0.6552301049232483,12.201060103706629,-0.422768771648407
10.199000000022352,0.6655812859535217,12.206072645530174,-0.4070945084095001
10.298999999999069,0.6720924377441406,12.211060187041213,-0.39735937118530273
10.398999999975786,0.6811732649803162,12.216022976383341,-0.38393858075141907
10.498999999952503,0.6889213919639587,12.220961258023925,-0.3726280927658081
10.599000000045635,0.6893424987792969,12.225875272826354,-0.3720170259475708
10.699000000022352,0.6913222074508667,12.230765258120545,-0.36914926767349243
10.798999999999069,0.7012962698936462,12.235631447771718,-0.35482484102249146
10.898999999975786,0.7025542259216309,12.240474072247506,-0.3530326783657074
10.998999999952503,0.7071865797042847,12.245293358683455,-0.3464607894420624
11.099000000045635,0.7098105549812317,12.250089530946948,-0.3427571654319763
11.199000000022352,0.7114251255989075,12.254862809699606,-0.3404850959777832
11.298999999999069,0.7198319435119629,12.259613412458204,-0.3287375271320343
11.398999999975786,0.7240040898323059,12.26434155365415,-0.3229582607746124
11.498999999952503,0.7304794192314148,12.269047444691562,-0.3140541911125183
11.599000000045635,0.7324038147926331,12.273731294003989,-0.31142327189445496
11.699000000022352,0.7417349815368652,12.2783933071098,-0.2987632751464844
11.798999999999069,0.748060405254364,12.283033686666302,-0.2902715504169464
11.898999999975786,0.7522947788238525,12.287652632522597,-0.2846270203590393
11.998999999952503,0.7611771821975708,12.292250341771226,-0.2728891372680664
12.099000000045635,0.7635933756828308,12.296827008798639,-0.2697198688983917
12.199000000022352,0.770054042339325,12.301382825334498,-0.2612946033477783
12.298999999999069,0.777506411075592,12.30591798049989,-0.2516633868217468
12.398999999975786,0.7799959778785706,12.310432660854417,-0.24846652150154114
12.498999999952503,0.7881659269332886,12.314927050442256,-0.23804663121700287
12.599000000045635,0.7935426831245422,12.319401330837177,-0.2312479466199875
12.699000000022352,0.7997732758522034,12.323855681186558,-0.22342699766159058
12.798999999999069,0.8049803972244263,12.328290278254423,-0.2169373482465744
12.898999999975786,0.8100976943969727,12.332705296463539,-0.21060043573379517
12.998999999952503,0.8189076781272888,12.337100907936577,-0.19978392124176025
13.099000000045635,0.8282439112663269,12.341477282536376,-0.18844759464263916
13.199000000022352,0.8267778158187866,12.345834587905333,-0.19021928310394287
13.298999999999069,0.8333554863929749,12.35017298950393,-0.18229496479034424
13.398999999975786,0.8381385803222656,12.354492650648448,-0.1765718162059784
13.498999999952503,0.8433694243431091,12.358793732547838,-0.17035017907619476
13.599000000045635,0.8473488092422485,12.363076394339839,-0.1656428575515747
13.699000000022352,0.8529250025749207,12.367340793126296,-0.15908364951610565
13.798999999999069,0.8551676869392395,12.371587084007746,-0.15645770728588104
13.898999999975786,0.8637834191322327,12.375815420117268,-0.14643320441246033
13.998999999952503,0.8716014623641968,12.380025952653611,-0.13742300868034363
14.099000000045635,0.8770147562026978,12.384218830913648,-0.13123145699501038
14.199000000022352,0.8776464462280273,12.388394202324129,-0.13051144778728485
14.298999999999069,0.8788822889328003,12.392552212472792,-0.12910431623458862
14.398999999975786,0.8851765990257263,12.396693005138824,-0.1219681054353714
14.498999999952503,0.8914005160331726,12.400816722322686,-0.11496143788099289
14.599000000045635,0.8891534209251404,12.404923504275338,-0.11748547852039337
14.699000000022352,0.8894063830375671,12.409013489526863,-0.11720101535320282
14.798999999999069,0.8890881538391113,12.4130868149145,-0.11755888164043427
14.898999999975786,0.8954217433929443,12.417143615610113,-0.11046045273542404
14.998999999952503,0.8983579277992249,12.421184025147118,-0.1071867123246193
15.099000000045635,0.9046515822410583,12.425208175446844,-0.10020539909601212
15.199000000022352,0.9082416892051697,12.429216196844383,-0.09624475240707397
15.298999999999069,0.9056850671768188,12.43320821811392,-0.09906364232301712
15.398999999975786,0.9143358469009399,12.437184366493561,-0.08955733478069305
15.498999999952503,0.9223876595497131,12.441144767709657,-0.08078968524932861
15.599000000045635,0.9267885684967041,12.445089546000673,-0.07602981477975845
15.699000000022352,0.9313090443611145,12.449018824140563,-0.07116410881280899
15.798999999999069,0.9340833425521851,12.4529327234617,-0.06818961352109909
15.898999999975786,0.936526358127594,12.456831363877356,-0.06557761132717133
