Time [ps],MSD Values,Log Time,Log MSD 
0.0,0.0,-inf,-inf
0.0009999999310821295,8.110662020044401e-05,6.907755278982137,-9.419746398925781
0.001999999978579581,0.00017448353173676878,7.600902459542082,-8.653679847717285
0.003000000026077032,0.00022231916955206543,8.006367567650246,-8.411396980285645
0.003999999957159162,0.0003260753583163023,8.294049640102028,-8.028382301330566
0.005000000004656613,0.00040019984589889646,8.517193191416238,-7.823546409606934
0.005999999935738742,0.0004902062937617302,8.699514748210191,-7.6206841468811035
0.006999999983236194,0.0005737513420172036,8.85366542803745,-7.463314533233643
0.008000000030733645,0.0006666884291917086,8.987196820661973,-7.313187599182129
0.008999999961815774,0.0006958628655411303,9.104979856318357,-7.270358085632324
0.010000000009313226,0.0007565956912003458,9.210340371976184,-7.186681747436523
0.010999999940395355,0.0008277684100903571,9.305650551780507,-7.096776962280273
0.011999999987892807,0.0009429646888747811,9.392661928770137,-6.966481685638428
0.013000000035390258,0.00099336844868958,9.472704636443673,-6.914409160614014
0.013999999966472387,0.0010860447073355317,9.546812608597396,-6.8252129554748535
0.015000000013969839,0.0012655117316171527,9.615805480084347,-6.672278881072998
0.015999999945051968,0.0013475504238158464,9.680344001221918,-6.609467029571533
0.01699999999254942,0.0014710592804476619,9.740968623038354,-6.521772384643555
0.01799999992363155,0.0015721115050837398,9.798127036878302,-6.45533561706543
0.018999999971129,0.0016752618830651045,9.852194258148577,-6.391785621643066
0.02000000001862645,0.0017961717676371336,9.903487552536127,-6.3220977783203125
0.02099999994970858,0.0018757510697469115,9.95227771670556,-6.278746128082275
0.021999999997206032,0.0019000080646947026,9.998797732340453,-6.265897274017334
0.022999999928288162,0.002064724452793598,10.043249494911286,-6.182758331298828
0.023999999975785613,0.0022241955157369375,10.085809109330082,-6.1083598136901855
0.025000000023283064,0.0022743025328963995,10.126631103850338,-6.0860819816589355
0.025999999954365194,0.002316831611096859,10.165851817003619,-6.067554950714111
0.027000000001862645,0.0023629902862012386,10.203592144986466,-6.047827243804932
0.027999999932944775,0.0024031642824411392,10.239959789157341,-6.030969142913818
0.028999999980442226,0.0024345829151570797,10.275051108968611,-6.017979621887207
0.030000000027939677,0.0025234706699848175,10.308952660644293,-5.982120037078857
0.030999999959021807,0.0026487205177545547,10.341742483467284,-5.93367862701416
0.03200000000651926,0.002744388533756137,10.373491181781864,-5.898197174072266
0.03299999993760139,0.0027042548172175884,10.404262840448617,-5.912929058074951
0.03399999998509884,0.0027544049080461264,10.4341158035983,-5.8945536613464355
0.03500000003259629,0.0027810882311314344,10.46310334047155,-5.884912967681885
0.03599999996367842,0.002854732796549797,10.491274217438248,-5.858777046203613
0.03700000001117587,0.00295086856931448,10.51867319162636,-5.825655937194824
0.037999999942258,0.0030179147142916918,10.545341438708522,-5.803189277648926
0.03899999998975545,0.003099586581811309,10.571316925111784,-5.776486396789551
0.0400000000372529,0.0031630948651582003,10.596634733096073,-5.756204128265381
0.04099999996833503,0.003203760599717498,10.621327345686446,-5.743430137634277
0.042000000015832484,0.0032802375499159098,10.645424897265505,-5.719839572906494
0.04299999994691461,0.0034436939749866724,10.668955394675699,-5.671210765838623
0.043999999994412065,0.0034491135738790035,10.691944912900398,-5.669638156890869
0.044999999925494194,0.003526129061356187,10.714417768752456,-5.647554397583008
0.045999999972991645,0.0035480200313031673,10.736396675471232,-5.6413655281066895
0.0470000000204891,0.0035967454314231873,10.757902880692196,-5.627726078033447
0.047999999951571226,0.0036556546110659838,10.778956289890028,-5.611480236053467
0.04899999999906868,0.0037064123898744583,10.799575577092764,-5.597691059112549
0.04999999993015081,0.0037836504634469748,10.819778284410283,-5.577065944671631
0.05099999997764826,0.003922209609299898,10.839580911706463,-5.541100025177002
0.05200000002514571,0.003950405865907669,10.858998997563564,-5.533936977386475
0.05299999995622784,0.003998440224677324,10.87804719253426,-5.521851062774658
0.05400000000372529,0.0041436911560595036,10.896739325546411,-5.486168384552002
0.05499999993480742,0.004238449968397617,10.915088464214607,-5.463557720184326
0.05599999998230487,0.0044388906098902225,10.933106969717286,-5.417350769042969
0.05700000002980232,0.004657842684537172,10.950806546816688,-5.369203090667725
0.05799999996088445,0.004718715324997902,10.968198289528557,-5.3562188148498535
0.0590000000083819,0.004863453563302755,10.985292722887856,-5.3260064125061035
0.05999999993946403,0.005037185736000538,11.002099841204238,-5.290907859802246
0.060999999986961484,0.005156178958714008,11.018629143155449,-5.26755952835083
0.062000000034458935,0.0053102923557162285,11.03488966402723,-5.2381086349487305
0.06299999996554106,0.005373944528400898,11.05089000537367,-5.226192951202393
0.06400000001303852,0.005418607499450445,11.06663836234181,-5.217916488647461
0.06499999994412065,0.005378623493015766,11.082142548877775,-5.225322723388672
0.0659999999916181,0.005414385814219713,11.097410021008562,-5.218695640563965
0.06700000003911555,0.005523385014384985,11.112447898373103,-5.198764324188232
0.06799999997019768,0.0055387369357049465,11.127262984158243,-5.195988655090332
0.06900000001769513,0.005795279052108526,11.141861783579396,-5.150711536407471
0.06999999994877726,0.005916275549679995,11.156250521031495,-5.1300482749938965
0.07099999999627471,0.005778415594249964,11.170435156023453,-5.153625965118408
0.07199999992735684,0.00589539110660553,11.184421397998193,-5.133584499359131
0.07299999997485429,0.006118241231888533,11.198214720130528,-5.096480846405029
0.07400000002235174,0.006145137827843428,11.211820372186306,-5.0920939445495605
0.07499999995343387,0.00630516093224287,11.225243392518447,-5.066386699676514
0.07600000000093132,0.006310615222901106,11.238488619268468,-5.065522193908691
0.07699999993201345,0.0063826655969023705,11.251560700835821,-5.054169654846191
0.0779999999795109,0.00675682770088315,11.26446410567173,-4.997201919555664
0.07900000002700835,0.006827070843428373,11.27720313144916,-4.9868597984313965
0.07999999995809048,0.006914361845701933,11.289781913656018,-4.974154472351074
0.08100000000558794,0.007056297268718481,11.302204433654575,-4.9538350105285645
0.08199999993667006,0.007134299725294113,11.314474526246391,-4.942841053009033
0.08299999998416752,0.007214263081550598,11.326595886778735,-4.931695461273193
0.08400000003166497,0.007303453516215086,11.33857207782545,-4.919407844543457
0.0849999999627471,0.007493780460208654,11.350406535472453,-4.89368200302124
0.08600000001024455,0.007732012774795294,11.362102575235644,-4.862386226654053
0.08699999994132668,0.007722778245806694,11.37366339763672,-4.86358118057251
0.08799999998882413,0.007902479730546474,11.385092093460344,-4.840578556060791
0.08900000003632158,0.007921467535197735,11.396391648714276,-4.838178634643555
0.08999999996740371,0.007876783609390259,11.407564949312402,-4.843835830688477
0.09100000001490116,0.007896490395069122,11.418614785498987,-4.841336727142334
0.09199999994598329,0.007988911122083664,11.429543856031177,-4.829700946807861
0.09299999999348074,0.007890978828072548,11.440354772135393,-4.842035293579102
0.09399999992456287,0.007941075600683689,11.451050061252142,-4.83570671081543
0.09499999997206032,0.007938466034829617,11.461632170582678,-4.836035251617432
0.09600000001955777,0.008103263564407825,11.472103470449973,-4.815488338470459
0.0969999999506399,0.008169123902916908,11.48246625748552,-4.807393550872803
0.09799999999813735,0.008277947083115578,11.49272275765271,-4.79416036605835
0.09899999992921948,0.008303100243210793,11.502875129116727,-4.791126251220703
0.19900000002235174,0.014942050911486149,11.512925464970229,-4.203575611114502
0.2989999999990687,0.017995307222008705,11.522875795823397,-4.01764440536499
0.3989999999757856,0.025434819981455803,11.532728092266408,-3.6716361045837402
0.49899999995250255,0.02751418575644493,11.542484267211773,-3.5930535793304443
0.5989999999292195,0.03139033541083336,11.55214617812351,-3.4612553119659424
0.6990000000223517,0.03226086497306824,11.56171562913966,-3.4339003562927246
0.7989999999990687,0.03622448816895485,11.571194373094205,-3.3180198669433594
0.8989999999757856,0.037256743758916855,11.580584113444043,-3.2899222373962402
0.9989999999525025,0.04151574522256851,11.589886506106357,-3.181682586669922
1.0989999999292195,0.040378957986831665,11.59910316121128,-3.209446430206299
1.1990000000223517,0.04434124752879143,11.608235644774552,-3.115839958190918
1.2989999999990687,0.04876182973384857,11.617285480294472,-3.0208075046539307
1.3989999999757856,0.05041387304663658,11.626254150277232,-2.9874887466430664
1.4989999999525025,0.050136499106884,11.635143097694478,-2.9930059909820557
1.5989999999292195,0.05710935220122337,11.643953727376633,-2.8627874851226807
1.6990000000223517,0.056655120104551315,11.652687407345388,-2.8707728385925293
1.7989999999990687,0.06040525436401367,11.661345470088502,-2.8066792488098145
1.8989999999757856,0.06726788729429245,11.669929213779893,-2.6990723609924316
1.9989999999525025,0.06981097906827927,11.678439903447801,-2.661963939666748
2.0989999999292195,0.07581215351819992,11.686878772093667,-2.5794966220855713
2.1990000000223517,0.07757353037595749,11.695247021764184,-2.5565290451049805
2.2989999999990687,0.07958738505840302,11.703545824578878,-2.5308997631073
2.3989999999757856,0.0795975998044014,11.711776323715394,-2.530771255493164
2.4989999999525025,0.07815667986869812,11.719939634354555,-2.549039840698242
2.5989999999292195,0.07920991629362106,11.728036844587175,-2.535653829574585
2.6990000000223517,0.08988924324512482,11.736069016284437,-2.40917706489563
2.7989999999990687,0.09025057405233383,11.744037185933616,-2.405165195465088
2.8989999999757856,0.08657439798116684,11.751942365440728,-2.446751117706299
2.9989999999525025,0.09175750613212585,11.759785542901755,-2.388606071472168
3.0989999999292195,0.09222542494535446,11.76756768334381,-2.383519411087036
3.1990000000223517,0.0900154858827591,11.77528972943772,-2.407773494720459
3.2989999999990687,0.09604766219854355,11.782952602183288,-2.3429107666015625
3.3989999999757856,0.09846868366003036,11.790557201568507,-2.318016767501831
3.4989999999525025,0.10409829765558243,11.79810440720389,-2.2624197006225586
3.5989999999292195,0.10267938673496246,11.805595078933049,-2.276143789291382
3.6990000000223517,0.10741058737039566,11.813030057420567,-2.2310965061187744
3.7989999999990687,0.10592062771320343,11.820410164718188,-2.245065212249756
3.8989999999757856,0.11062628030776978,11.827736204810263,-2.2015976905822754
3.9989999999525025,0.11494401097297668,11.835008964139341,-2.1633100509643555
4.0989999999292195,0.11275327950716019,11.842229212112828,-2.182553291320801
4.199000000022352,0.10995368659496307,11.84939770159144,-2.207695960998535
4.298999999999069,0.11494667828083038,11.856515169360305,-2.1632869243621826
4.398999999975786,0.12128764390945435,11.863582336583399,-2.1095902919769287
4.4989999999525025,0.12142422795295715,11.870599909242044,-2.1084649562835693
4.5989999999292195,0.12480971962213516,11.877568578558138,-2.080965042114258
4.699000000022352,0.12502862513065338,11.884489021402711,-2.0792126655578613
4.798999999999069,0.1307203471660614,11.891361900690473,-2.0346949100494385
4.898999999975786,0.13680222630500793,11.898187865760873,-1.9892189502716064
4.9989999999525025,0.13682936131954193,11.904967552746252,-1.9890207052230835
5.0989999999292195,0.1395895779132843,11.911701584927597,-1.9690487384796143
5.199000000022352,0.13633856177330017,11.918390573078392,-1.9926140308380127
5.298999999999069,0.13243593275547028,11.925035115797062,-2.0216562747955322
5.398999999975786,0.13246501982212067,11.931635799828413,-2.0214366912841797
5.4989999999525025,0.13418437540531158,11.938193200374572,-2.008540391921997
5.5989999999292195,0.13312719762325287,11.944707881395766,-2.0164501667022705
5.699000000022352,0.13197316229343414,11.951180395901384,-2.0251567363739014
5.798999999999069,0.13162894546985626,11.957611286231675,-2.02776837348938
5.898999999975786,0.13648761808872223,11.964001084330445,-1.9915213584899902
5.9989999999525025,0.13715101778507233,11.970350312009105,-1.9866726398468018
6.0989999999292195,0.13776181638240814,11.976659481202368,-1.9822291135787964
6.199000000022352,0.13973401486873627,11.982929094215963,-1.9680145978927612
6.298999999999069,0.13926655054092407,11.9891596439666,-1.9713655710220337
6.398999999975786,0.13529124855995178,11.99535161421452,-2.0003254413604736
6.4989999999525025,0.14045530557632446,12.0015054797889,-1.962865948677063
6.5989999999292195,0.14713574945926666,12.007621706806335,-1.916399598121643
6.699000000022352,0.14779804646968842,12.013700752882718,-1.911908507347107
6.798999999999069,0.14554083347320557,12.01974306733868,-1.9272985458374023
6.898999999975786,0.15001507103443146,12.025749091398891,-1.8970195055007935
6.9989999999525025,0.1537252515554428,12.031719258385396,-1.8725883960723877
7.0989999999292195,0.15213729441165924,12.037653993905211,-1.8829718828201294
7.199000000022352,0.15433503687381744,12.043553716032399,-1.8686294555664062
7.298999999999069,0.15504273772239685,12.049418835484797,-1.8640544414520264
7.398999999975786,0.1574828326702118,12.05524975579559,-1.8484388589859009
7.4989999999525025,0.15472958981990814,12.061046873479915,-1.8660762310028076
7.5989999999292195,0.15977346897125244,12.066810578196666,-1.8339983224868774
7.699000000022352,0.15727321803569794,12.072541252905651,-1.8497707843780518
7.798999999999069,0.16294993460178375,12.078239274020289,-1.814312219619751
7.898999999975786,0.15771807730197906,12.083905011555967,-1.846946120262146
7.9989999999525025,0.1570921093225479,12.089538829274222,-1.85092294216156
8.09899999992922,0.16251780092716217,12.095141084822892,-1.8169677257537842
8.199000000022352,0.17491817474365234,12.100712129872347,-1.7434370517730713
8.298999999999069,0.1792447715997696,12.106252310247962,-1.7190029621124268
8.398999999975786,0.18320024013519287,12.111761966058932,-1.6971755027770996
8.498999999952503,0.18284691870212555,12.117241431823558,-1.699105978012085
8.59899999992922,0.18521039187908173,12.122691036591123,-1.686262845993042
8.699000000022352,0.18883304297924042,12.128111104060462,-1.6668920516967773
8.798999999999069,0.19086027145385742,12.133501952695338,-1.6562137603759766
8.898999999975786,0.19431844353675842,12.138863895836725,-1.6382570266723633
8.998999999952503,0.18921832740306854,12.144197241812087,-1.664853811264038
9.09899999992922,0.19220103323459625,12.14950229404178,-1.649213433265686
9.199000000022352,0.1945566087961197,12.154779351142624,-1.637032151222229
9.298999999999069,0.1942015141248703,12.160028707028767,-1.6388589143753052
9.398999999975786,0.1915404349565506,12.165250651009918,-1.6526563167572021
9.498999999952503,0.19452381134033203,12.170445467887022,-1.6372007131576538
9.59899999992922,0.19321765005588531,12.175613438045465,-1.6439380645751953
9.699000000022352,0.1944151073694229,12.180754837545884,-1.6377596855163574
9.798999999999069,0.1936200112104416,12.185869938212655,-1.6418577432632446
9.898999999975786,0.19057431817054749,12.190959007720126,-1.6577130556106567
9.998999999952503,0.19324477016925812,12.196022309676673,-1.6437976360321045
10.09899999992922,0.19262106716632843,12.201060103706629,-1.6470303535461426
10.199000000022352,0.19385799765586853,12.206072645530174,-1.6406294107437134
10.298999999999069,0.19669142365455627,12.211060187041213,-1.6261191368103027
10.398999999975786,0.2005256563425064,12.216022976383341,-1.6068130731582642
10.498999999952503,0.1993981897830963,12.220961258023925,-1.6124515533447266
10.59899999992922,0.20028388500213623,12.225875272826354,-1.608019471168518
10.699000000022352,0.21079832315444946,12.230765258120545,-1.5568534135818481
10.798999999999069,0.20751231908798218,12.235631447771718,-1.5725646018981934
10.898999999975786,0.20507462322711945,12.240474072247506,-1.584381341934204
10.998999999952503,0.2098466008901596,12.245293358683455,-1.5613784790039062
11.09899999992922,0.20488491654396057,12.250089530946948,-1.5853068828582764
11.199000000022352,0.2160455882549286,12.254862809699606,-1.5322659015655518
11.298999999999069,0.2178645133972168,12.259613412458204,-1.5238819122314453
11.398999999975786,0.20831580460071564,12.26434155365415,-1.5687000751495361
11.498999999952503,0.21592186391353607,12.269047444691562,-1.5328387022018433
11.59899999992922,0.2281549721956253,12.273731294003989,-1.47773015499115
11.699000000022352,0.23517586290836334,12.2783933071098,-1.447421669960022
11.798999999999069,0.23215638101100922,12.283033686666302,-1.4603440761566162
11.898999999975786,0.23408815264701843,12.287652632522597,-1.4520574808120728
11.998999999952503,0.24361132085323334,12.292250341771226,-1.4121812582015991
12.09899999992922,0.24038276076316833,12.296827008798639,-1.425522804260254
12.199000000022352,0.2479926347732544,12.301382825334498,-1.3943562507629395
12.298999999999069,0.2542266547679901,12.30591798049989,-1.369529128074646
12.398999999975786,0.25397828221321106,12.310432660854417,-1.3705065250396729
12.498999999952503,0.2610025405883789,12.314927050442256,-1.343225121498108
12.59899999992922,0.25954803824424744,12.319401330837177,-1.348813533782959
12.699000000022352,0.25795140862464905,12.323855681186558,-1.3549840450286865
12.798999999999069,0.25067633390426636,12.328290278254423,-1.3835927248001099
12.898999999975786,0.25334498286247253,12.332705296463539,-1.3730031251907349
12.998999999952503,0.26245957612991333,12.337100907936577,-1.337658166885376
13.09899999992922,0.2567923069000244,12.341477282536376,-1.3594876527786255
13.199000000022352,0.25375014543533325,12.345834587905333,-1.3714051246643066
13.298999999999069,0.2596913278102875,12.35017298950393,-1.3482615947723389
13.398999999975786,0.2665107250213623,12.354492650648448,-1.3223408460617065
13.498999999952503,0.26658838987350464,12.358793732547838,-1.3220493793487549
13.59899999992922,0.26238396763801575,12.363076394339839,-1.3379462957382202
13.699000000022352,0.25914841890335083,12.367340793126296,-1.3503543138504028
13.798999999999069,0.262037992477417,12.371587084007746,-1.3392658233642578
13.898999999975786,0.2655273675918579,12.375815420117268,-1.3260374069213867
13.998999999952503,0.2586403787136078,12.380025952653611,-1.3523167371749878
14.09899999992922,0.261496365070343,12.384218830913648,-1.3413349390029907
14.199000000022352,0.25991857051849365,12.388394202324129,-1.3473868370056152
14.298999999999069,0.26661673188209534,12.392552212472792,-1.3219431638717651
14.398999999975786,0.2780430316925049,12.396693005138824,-1.2799793481826782
14.498999999952503,0.27771472930908203,12.400816722322686,-1.281160831451416
14.59899999992922,0.2793347239494324,12.404923504275338,-1.2753444910049438
14.699000000022352,0.28290194272994995,12.409013489526863,-1.2626549005508423
14.798999999999069,0.28343892097473145,12.4130868149145,-1.260758638381958
14.898999999975786,0.2846200466156006,12.417143615610113,-1.2566001415252686
14.998999999952503,0.2845586836338043,12.421184025147118,-1.256815791130066
15.09899999992922,0.2946505844593048,12.425208175446844,-1.2219650745391846
15.199000000022352,0.2965456247329712,12.429216196844383,-1.2155542373657227
15.298999999999069,0.295543372631073,12.43320821811392,-1.2189396619796753
15.398999999975786,0.3034200966358185,12.437184366493561,-1.1926369667053223
15.498999999952503,0.29336661100387573,12.441144767709657,-1.226332187652588
15.59899999992922,0.28822824358940125,12.445089546000673,-1.2440025806427002
15.699000000022352,0.2952187955379486,12.449018824140563,-1.2200385332107544
15.798999999999069,0.2955171465873718,12.4529327234617,-1.2190284729003906
