Time [ps],MSD Values,Log Time,Log MSD 
0.0,0.0,-inf,-inf
0.0009999999310821295,0.0004318233404774219,6.907755278982137,-7.747494220733643
0.001999999978579581,0.0008260119939222932,7.600902459542082,-7.098901271820068
0.003000000026077032,0.0012179858749732375,8.006367567650246,-6.710556507110596
0.003999999957159162,0.0015897013945505023,8.294049640102028,-6.444209098815918
0.005000000004656613,0.0019015878206118941,8.517193191416238,-6.265066146850586
0.005999999935738742,0.002278540749102831,8.699514748210191,-6.084219932556152
0.006999999983236194,0.0026116357184946537,8.85366542803745,-5.947778701782227
0.008000000030733645,0.0029555612709373236,8.987196820661973,-5.824066638946533
0.008999999961815774,0.003236720571294427,9.104979856318357,-5.733194828033447
0.010000000009313226,0.003609799314290285,9.210340371976184,-5.62410306930542
0.010999999940395355,0.00395583501085639,9.305650551780507,-5.53256368637085
0.011999999987892807,0.004246740136295557,9.392661928770137,-5.46160364151001
0.013000000035390258,0.0046529402025043964,9.472704636443673,-5.370255947113037
0.013999999966472387,0.00498935068026185,9.546812608597396,-5.300449371337891
0.015000000013969839,0.005177557934075594,9.615805480084347,-5.263422012329102
0.015999999945051968,0.00540996203199029,9.680344001221918,-5.219513416290283
0.01699999999254942,0.00568151893094182,9.740968623038354,-5.170536518096924
0.01799999992363155,0.005922296550124884,9.798127036878302,-5.129031181335449
0.018999999971129,0.006196181755512953,9.852194258148577,-5.083822250366211
0.02000000001862645,0.006451397202908993,9.903487552536127,-5.043458461761475
0.02099999994970858,0.006712294649332762,9.95227771670556,-5.003814220428467
0.021999999997206032,0.006974159274250269,9.998797732340453,-4.965543746948242
0.022999999928288162,0.0071928962133824825,10.043249494911286,-4.934661388397217
0.023999999975785613,0.007460908032953739,10.085809109330082,-4.898077964782715
0.025000000023283064,0.007696453481912613,10.126631103850338,-4.866995811462402
0.025999999954365194,0.007841737009584904,10.165851817003619,-4.848294734954834
0.027000000001862645,0.008114203810691833,10.203592144986466,-4.814139366149902
0.027999999932944775,0.008260628208518028,10.239959789157341,-4.796254634857178
0.028999999980442226,0.008543994277715683,10.275051108968611,-4.762526512145996
0.030000000027939677,0.008792705833911896,10.308952660644293,-4.733832836151123
0.030999999959021807,0.009118886664509773,10.341742483467284,-4.6974077224731445
0.03200000000651926,0.009377523325383663,10.373491181781864,-4.669439792633057
0.03299999993760139,0.009618782438337803,10.404262840448617,-4.64403772354126
0.03399999998509884,0.009825201705098152,10.4341158035983,-4.622804641723633
0.03500000003259629,0.010140901431441307,10.46310334047155,-4.5911784172058105
0.03599999996367842,0.01038208045065403,10.491274217438248,-4.567674160003662
0.03700000001117587,0.01064789853990078,10.51867319162636,-4.542392730712891
0.037999999942258,0.010792328976094723,10.545341438708522,-4.528919696807861
0.03899999998975545,0.010933049023151398,10.571316925111784,-4.515964984893799
0.0400000000372529,0.011178319342434406,10.596634733096073,-4.493779182434082
0.04099999996833503,0.01139568816870451,10.621327345686446,-4.474520206451416
0.042000000015832484,0.011458920314908028,10.645424897265505,-4.468986988067627
0.04299999994691461,0.011564475484192371,10.668955394675699,-4.459817409515381
0.043999999994412065,0.011883786879479885,10.691944912900398,-4.432580471038818
0.044999999925494194,0.012143128551542759,10.714417768752456,-4.410991668701172
0.045999999972991645,0.012394286692142487,10.736396675471232,-4.390519618988037
0.0470000000204891,0.012526504695415497,10.757902880692196,-4.379908561706543
0.047999999951571226,0.01272160466760397,10.778956289890028,-4.3644537925720215
0.04899999999906868,0.012948490679264069,10.799575577092764,-4.346776008605957
0.04999999993015081,0.013129478320479393,10.819778284410283,-4.332895278930664
0.05099999997764826,0.013190670870244503,10.839580911706463,-4.328245639801025
0.05200000002514571,0.01337310392409563,10.858998997563564,-4.314509868621826
0.05299999995622784,0.013603831641376019,10.87804719253426,-4.297403812408447
0.05400000000372529,0.013813924975693226,10.896739325546411,-4.282078266143799
0.05499999993480742,0.013928129337728024,10.915088464214607,-4.2738447189331055
0.05599999998230487,0.014097314327955246,10.933106969717286,-4.261771202087402
0.05700000002980232,0.014294459484517574,10.950806546816688,-4.247883319854736
0.05799999996088445,0.014480401761829853,10.968198289528557,-4.234959125518799
0.0590000000083819,0.014706567861139774,10.985292722887856,-4.219460964202881
0.05999999993946403,0.014732681214809418,11.002099841204238,-4.217687129974365
0.060999999986961484,0.014963478781282902,11.018629143155449,-4.202142715454102
0.062000000034458935,0.015119405463337898,11.03488966402723,-4.191776275634766
0.06299999996554106,0.015357078053057194,11.05089000537367,-4.176178932189941
0.06400000001303852,0.01551792398095131,11.06663836234181,-4.165759563446045
0.06499999994412065,0.015723008662462234,11.082142548877775,-4.15263032913208
0.0659999999916181,0.01601632498204708,11.097410021008562,-4.134146690368652
0.06700000003911555,0.016199098899960518,11.112447898373103,-4.122799873352051
0.06799999997019768,0.016282130032777786,11.127262984158243,-4.117687225341797
0.06900000001769513,0.01656457409262657,11.141861783579396,-4.100489139556885
0.06999999994877726,0.016758205369114876,11.156250521031495,-4.0888671875
0.07099999999627471,0.01688036508858204,11.170435156023453,-4.08160400390625
0.07199999992735684,0.01713063195347786,11.184421397998193,-4.066886901855469
0.07299999997485429,0.01726066879928112,11.198214720130528,-4.059324741363525
0.07400000002235174,0.017439724877476692,11.211820372186306,-4.049004554748535
0.07499999995343387,0.017609158530831337,11.225243392518447,-4.039336204528809
0.07600000000093132,0.017725564539432526,11.238488619268468,-4.032747268676758
0.07699999993201345,0.017776306718587875,11.251560700835821,-4.02988862991333
0.0779999999795109,0.01786252297461033,11.26446410567173,-4.025050640106201
0.07900000002700835,0.01794557459652424,11.27720313144916,-4.020411968231201
0.07999999995809048,0.018210940062999725,11.289781913656018,-4.005732536315918
0.08100000000558794,0.018307361751794815,11.302204433654575,-4.000452041625977
0.08199999993667006,0.018587343394756317,11.314474526246391,-3.985274314880371
0.08299999998416752,0.018750565126538277,11.326595886778735,-3.976531505584717
0.08400000003166497,0.018877841532230377,11.33857207782545,-3.96976637840271
0.0849999999627471,0.019004857167601585,11.350406535472453,-3.9630606174468994
0.08600000001024455,0.019142914563417435,11.362102575235644,-3.955822706222534
0.08699999994132668,0.01934077776968479,11.37366339763672,-3.9455394744873047
0.08799999998882413,0.019549133256077766,11.385092093460344,-3.9348244667053223
0.08900000003632158,0.019760344177484512,11.396391648714276,-3.9240782260894775
0.08999999996740371,0.019768938422203064,11.407564949312402,-3.9236433506011963
0.09100000001490116,0.020057113841176033,11.418614785498987,-3.9091713428497314
0.09199999994598329,0.020309915766119957,11.429543856031177,-3.896646022796631
0.09299999999348074,0.02051384188234806,11.440354772135393,-3.886655330657959
0.09399999992456287,0.020854182541370392,11.451050061252142,-3.8702006340026855
0.09499999997206032,0.02097509056329727,11.461632170582678,-3.86441969871521
0.09600000001955777,0.02096523344516754,11.472103470449973,-3.8648898601531982
0.0969999999506399,0.021057195961475372,11.48246625748552,-3.8605129718780518
0.09799999999813735,0.021125545725226402,11.49272275765271,-3.8572723865509033
0.09899999992921948,0.021117977797985077,11.502875129116727,-3.857630491256714
0.19900000002235174,0.034595049917697906,11.512925464970229,-3.364044666290283
0.2989999999990687,0.04509063437581062,11.522875795823397,-3.099080801010132
0.3989999999757856,0.053131911903619766,11.532728092266408,-2.9349775314331055
0.49899999995250255,0.06442709267139435,11.542484267211773,-2.7422211170196533
0.5989999999292195,0.07266418635845184,11.55214617812351,-2.6219067573547363
0.6990000000223517,0.07847806066274643,11.56171562913966,-2.544936180114746
0.7989999999990687,0.08665360510349274,11.571194373094205,-2.4458367824554443
0.8989999999757856,0.09323326498270035,11.580584113444043,-2.372650623321533
0.9989999999525025,0.09893869608640671,11.589886506106357,-2.3132548332214355
1.0989999999292195,0.10621669143438339,11.59910316121128,-2.242274045944214
1.1990000000223517,0.11417248845100403,11.608235644774552,-2.1700448989868164
1.2989999999990687,0.12275851517915726,11.617285480294472,-2.097536087036133
1.3989999999757856,0.13236169517040253,11.626254150277232,-2.022217035293579
1.4989999999525025,0.13911588490009308,11.635143097694478,-1.9724479913711548
1.5989999999292195,0.14695242047309875,11.643953727376633,-1.9176464080810547
1.6990000000223517,0.15255902707576752,11.652687407345388,-1.8802037239074707
1.7989999999990687,0.16135959327220917,11.661345470088502,-1.8241199254989624
1.8989999999757856,0.16562782227993011,11.669929213779893,-1.7980120182037354
1.9989999999525025,0.17347946763038635,11.678439903447801,-1.7516961097717285
2.0989999999292195,0.17641715705394745,11.686878772093667,-1.7349038124084473
2.1990000000223517,0.18349014222621918,11.695247021764184,-1.695594310760498
2.2989999999990687,0.18774054944515228,11.703545824578878,-1.6726943254470825
2.3989999999757856,0.19754719734191895,11.711776323715394,-1.6217777729034424
2.4989999999525025,0.20556801557540894,11.719939634354555,-1.5819783210754395
2.5989999999292195,0.21477439999580383,11.728036844587175,-1.538167119026184
2.6990000000223517,0.22311709821224213,11.736069016284437,-1.5000585317611694
2.7989999999990687,0.2321825623512268,11.744037185933616,-1.4602313041687012
2.8989999999757856,0.23838688433170319,11.751942365440728,-1.433860421180725
2.9989999999525025,0.24257083237171173,11.759785542901755,-1.41646146774292
3.0989999999292195,0.24870896339416504,11.76756768334381,-1.3914718627929688
3.1990000000223517,0.25872036814689636,11.77528972943772,-1.352007508277893
3.2989999999990687,0.2660244107246399,11.782952602183288,-1.324167251586914
3.3989999999757856,0.2708587944507599,11.790557201568507,-1.3061575889587402
3.4989999999525025,0.2817750871181488,11.79810440720389,-1.266646146774292
3.5989999999292195,0.2851162552833557,11.805595078933049,-1.2548582553863525
3.6990000000223517,0.2924797832965851,11.813030057420567,-1.229359745979309
3.7989999999990687,0.2985881567001343,11.820410164718188,-1.2086900472640991
3.8989999999757856,0.30325159430503845,11.827736204810263,-1.193192481994629
3.9989999999525025,0.30739685893058777,11.835008964139341,-1.1796157360076904
4.0989999999292195,0.3155694901943207,11.842229212112828,-1.1533763408660889
4.199000000022352,0.32533857226371765,11.84939770159144,-1.1228889226913452
4.298999999999069,0.33650481700897217,11.856515169360305,-1.0891427993774414
4.398999999975786,0.33521804213523865,11.863582336583399,-1.092974066734314
4.4989999999525025,0.3418017029762268,11.870599909242044,-1.0735244750976562
4.5989999999292195,0.3516620099544525,11.877568578558138,-1.0450847148895264
4.699000000022352,0.3556246757507324,11.884489021402711,-1.0338793992996216
4.798999999999069,0.3632728159427643,11.891361900690473,-1.0126011371612549
4.898999999975786,0.36538293957710266,11.898187865760873,-1.0068093538284302
4.9989999999525025,0.3671519160270691,11.904967552746252,-1.0019795894622803
5.0989999999292195,0.37262052297592163,11.911701584927597,-0.9871947765350342
5.199000000022352,0.37694287300109863,11.918390573078392,-0.9756616353988647
5.298999999999069,0.3840182423591614,11.925035115797062,-0.957065224647522
5.398999999975786,0.3910784423351288,11.931635799828413,-0.9388471245765686
5.4989999999525025,0.40048742294311523,11.938193200374572,-0.9150729179382324
5.5989999999292195,0.3991808295249939,11.944707881395766,-0.918340802192688
5.699000000022352,0.4055413007736206,11.951180395901384,-0.9025325775146484
5.798999999999069,0.4118442237377167,11.957611286231675,-0.8871101140975952
5.898999999975786,0.4181441068649292,11.964001084330445,-0.8719291687011719
5.9989999999525025,0.4282245934009552,11.970350312009105,-0.8481074571609497
6.0989999999292195,0.4350535571575165,11.976659481202368,-0.8322861194610596
6.199000000022352,0.43877112865448,11.982929094215963,-0.8237773180007935
6.298999999999069,0.4428127706050873,11.9891596439666,-0.8146082162857056
6.398999999975786,0.4563485085964203,11.99535161421452,-0.7844984531402588
6.4989999999525025,0.46985143423080444,12.0015054797889,-0.755338728427887
6.5989999999292195,0.47500401735305786,12.007621706806335,-0.7444320321083069
6.699000000022352,0.48314371705055237,12.013700752882718,-0.727441132068634
6.798999999999069,0.4838733375072479,12.01974306733868,-0.7259321212768555
6.898999999975786,0.4912869334220886,12.025749091398891,-0.7107269167900085
6.9989999999525025,0.4976949393749237,12.031719258385396,-0.697767972946167
7.0989999999292195,0.5080851912498474,12.037653993905211,-0.6771061420440674
7.199000000022352,0.5093820691108704,12.043553716032399,-0.6745569109916687
7.298999999999069,0.5201990008354187,12.049418835484797,-0.6535438299179077
7.398999999975786,0.5274079442024231,12.05524975579559,-0.6397809386253357
7.4989999999525025,0.5423260927200317,12.061046873479915,-0.6118878126144409
7.5989999999292195,0.5486932992935181,12.066810578196666,-0.6002156734466553
7.699000000022352,0.5555825233459473,12.072541252905651,-0.5877381563186646
7.798999999999069,0.5606237053871155,12.078239274020289,-0.578705370426178
7.898999999975786,0.5663295388221741,12.083905011555967,-0.5685791373252869
7.9989999999525025,0.5784456729888916,12.089538829274222,-0.5474106669425964
8.09899999992922,0.5807197093963623,12.095141084822892,-0.5434870719909668
8.199000000022352,0.5833785533905029,12.100712129872347,-0.5389189720153809
8.298999999999069,0.5936756134033203,12.106252310247962,-0.5214222073554993
8.398999999975786,0.6013742089271545,12.111761966058932,-0.5085378885269165
8.498999999952503,0.6093375086784363,12.117241431823558,-0.49538296461105347
8.59899999992922,0.6205002665519714,12.122691036591123,-0.4772292375564575
8.699000000022352,0.62794029712677,12.128111104060462,-0.4653101861476898
8.798999999999069,0.6299023032188416,12.133501952695338,-0.46219056844711304
8.898999999975786,0.6368774771690369,12.138863895836725,-0.4511779844760895
8.998999999952503,0.6444112658500671,12.144197241812087,-0.43941816687583923
9.09899999992922,0.6543850898742676,12.14950229404178,-0.42405927181243896
9.199000000022352,0.6564658284187317,12.154779351142624,-0.4208846092224121
9.298999999999069,0.6659488677978516,12.160028707028767,-0.4065423607826233
9.398999999975786,0.6734541654586792,12.165250651009918,-0.39533531665802
9.498999999952503,0.6818945407867432,12.170445467887022,-0.38288024067878723
9.59899999992922,0.6824268698692322,12.175613438045465,-0.3820999264717102
9.699000000022352,0.6976803541183472,12.180754837545884,-0.35999423265457153
9.798999999999069,0.7056360840797424,12.185869938212655,-0.348655641078949
9.898999999975786,0.7124692797660828,12.190959007720126,-0.33901849389076233
9.998999999952503,0.7218127250671387,12.196022309676673,-0.32598957419395447
10.09899999992922,0.7270846366882324,12.201060103706629,-0.31871235370635986
10.199000000022352,0.721614420413971,12.206072645530174,-0.3262643814086914
10.298999999999069,0.7291479706764221,12.211060187041213,-0.31587862968444824
10.398999999975786,0.7357656955718994,12.216022976383341,-0.3068435788154602
10.498999999952503,0.7417734861373901,12.220961258023925,-0.298711359500885
10.59899999992922,0.7429938316345215,12.225875272826354,-0.2970675528049469
10.699000000022352,0.7544660568237305,12.230765258120545,-0.28174498677253723
10.798999999999069,0.7598909139633179,12.235631447771718,-0.2745803892612457
10.898999999975786,0.7578704953193665,12.240474072247506,-0.2772427797317505
10.998999999952503,0.7717092633247375,12.245293358683455,-0.25914740562438965
11.09899999992922,0.7789384722709656,12.250089530946948,-0.2498232126235962
11.199000000022352,0.7884388566017151,12.254862809699606,-0.237700417637825
11.298999999999069,0.7970291972160339,12.259613412458204,-0.22686396539211273
11.398999999975786,0.798232913017273,12.26434155365415,-0.2253548502922058
11.498999999952503,0.8037810921669006,12.269047444691562,-0.2184283286333084
11.59899999992922,0.8082345128059387,12.273731294003989,-0.21290302276611328
11.699000000022352,0.8086099624633789,12.2783933071098,-0.21243859827518463
11.798999999999069,0.8131566643714905,12.283033686666302,-0.20683147013187408
11.898999999975786,0.826957106590271,12.287652632522597,-0.1900024563074112
11.998999999952503,0.8395161032676697,12.292250341771226,-0.17492961883544922
12.09899999992922,0.8443019986152649,12.296827008798639,-0.16924503445625305
12.199000000022352,0.8552761673927307,12.301382825334498,-0.15633085370063782
12.298999999999069,0.8551132678985596,12.30591798049989,-0.15652133524417877
12.398999999975786,0.8573061227798462,12.310432660854417,-0.1539602279663086
12.498999999952503,0.8619656562805176,12.314927050442256,-0.14853984117507935
12.59899999992922,0.8737347722053528,12.319401330837177,-0.13497841358184814
12.699000000022352,0.8812257051467896,12.323855681186558,-0.12644149363040924
12.798999999999069,0.897954523563385,12.328290278254423,-0.10763585567474365
12.898999999975786,0.8910396695137024,12.332705296463539,-0.11536633223295212
12.998999999952503,0.8986560702323914,12.337100907936577,-0.1068548858165741
13.09899999992922,0.9059203267097473,12.341477282536376,-0.09880390763282776
13.199000000022352,0.9088141918182373,12.345834587905333,-0.09561461955308914
13.298999999999069,0.9179895520210266,12.35017298950393,-0.08556926995515823
13.398999999975786,0.9159620404243469,12.354492650648448,-0.08778035640716553
13.498999999952503,0.921558678150177,12.358793732547838,-0.08168882131576538
13.59899999992922,0.9325485229492188,12.363076394339839,-0.06983409821987152
13.699000000022352,0.9412814974784851,12.367340793126296,-0.06051303446292877
13.798999999999069,0.9537188410758972,12.371587084007746,-0.04738636687397957
13.898999999975786,0.9619181156158447,12.375815420117268,-0.038825951516628265
13.998999999952503,0.9646998047828674,12.380025952653611,-0.035938311368227005
14.09899999992922,0.9691177606582642,12.384218830913648,-0.03136914595961571
14.199000000022352,0.9735769629478455,12.388394202324129,-0.02677839994430542
14.298999999999069,0.9836955070495605,12.392552212472792,-0.01643887348473072
14.398999999975786,0.988055408000946,12.396693005138824,-0.012016501277685165
14.498999999952503,0.9912951588630676,12.400816722322686,-0.008742949925363064
14.59899999992922,0.9936867952346802,12.404923504275338,-0.006333217024803162
14.699000000022352,0.9950446486473083,12.409013489526863,-0.004967669956386089
14.798999999999069,1.0145360231399536,12.4130868149145,0.014431389048695564
14.898999999975786,1.0251283645629883,12.417143615610113,0.02481783740222454
14.998999999952503,1.0262948274612427,12.421184025147118,0.025955062359571457
15.09899999992922,1.027856707572937,12.425208175446844,0.027475770562887192
15.199000000022352,1.0398552417755127,12.429216196844383,0.03908151388168335
15.298999999999069,1.04377281665802,12.43320821811392,0.04284185543656349
15.398999999975786,1.0467771291732788,12.437184366493561,0.045716047286987305
15.498999999952503,1.0495487451553345,12.441144767709657,0.04836030304431915
15.59899999992922,1.0618488788604736,12.445089546000673,0.0600116141140461
15.699000000022352,1.0613219738006592,12.449018824140563,0.05951527878642082
15.798999999999069,1.0708357095718384,12.4529327234617,0.06843937933444977
15.898999999975786,1.0705275535583496,12.456831363877356,0.0681515634059906
