Time [ps],MSD Values,Log Time,Log MSD 
0.0,0.0,-inf,-inf
0.0009999999892897904,0.0006026721675880253,6.907755278982137,-7.414137363433838
0.001999999978579581,0.0011229155352339149,7.600902459542082,-6.7918267250061035
0.002999999967869371,0.0015983375487849116,8.006367567650246,-6.438791275024414
0.003999999957159162,0.0019914472941309214,8.294049640102028,-6.218893527984619
0.004999999946448952,0.002451913198456168,8.517193191416238,-6.0108866691589355
0.005999999993946403,0.0028121895156800747,8.699514748210191,-5.8737921714782715
0.006999999983236194,0.0032212105579674244,8.85366542803745,-5.737998008728027
0.007999999972525984,0.003710381919518113,8.987196820661973,-5.596620559692383
0.008999999961815774,0.0040987404063344,9.104979856318357,-5.49707555770874
0.009999999951105565,0.0044065434485673904,9.210340371976184,-5.424664497375488
0.010999999998603016,0.00477462587878108,9.305650551780507,-5.344439506530762
0.011999999987892807,0.005078757647424936,9.392661928770137,-5.282688617706299
0.012999999977182597,0.005328882485628128,9.472704636443673,-5.23461389541626
0.013999999966472387,0.005607876926660538,9.546812608597396,-5.1835832595825195
0.014999999955762178,0.006034581921994686,9.615805480084347,-5.110248565673828
0.015999999945051968,0.0064316364005208015,9.680344001221918,-5.0465264320373535
0.01699999999254942,0.006718044634908438,9.740968623038354,-5.002958297729492
0.01799999998183921,0.007095756940543652,9.798127036878302,-4.948258399963379
0.018999999971129,0.007356048095971346,9.852194258148577,-4.912232398986816
0.01999999996041879,0.007586306426674128,9.903487552536127,-4.881410598754883
0.02099999994970858,0.007783536333590746,9.95227771670556,-4.855744361877441
0.021999999997206032,0.008125429973006248,9.998797732340453,-4.812756538391113
0.022999999986495823,0.008408289402723312,10.043249494911286,-4.778537273406982
0.023999999975785613,0.008626135066151619,10.085809109330082,-4.75295877456665
0.024999999965075403,0.008853440172970295,10.126631103850338,-4.726949214935303
0.025999999954365194,0.00912201963365078,10.165851817003619,-4.69706392288208
0.026999999943654984,0.009333404712378979,10.203592144986466,-4.674155235290527
0.027999999991152436,0.00954539142549038,10.239959789157341,-4.651696681976318
0.028999999980442226,0.009826278313994408,10.275051108968611,-4.622694969177246
0.029999999969732016,0.009948906488716602,10.308952660644293,-4.610292434692383
0.030999999959021807,0.010051936842501163,10.341742483467284,-4.599989891052246
0.0319999999483116,0.010296577587723732,10.373491181781864,-4.575943946838379
0.03299999999580905,0.010606159456074238,10.404262840448617,-4.54632043838501
0.03399999998509884,0.010844158008694649,10.4341158035983,-4.5241289138793945
0.03499999997438863,0.01120973564684391,10.46310334047155,-4.490972518920898
0.03599999996367842,0.011413960717618465,10.491274217438248,-4.4729180335998535
0.03699999995296821,0.011563203297555447,10.51867319162636,-4.459927558898926
0.03800000000046566,0.011805642396211624,10.545341438708522,-4.439177513122559
0.03899999998975545,0.011880768463015556,10.571316925111784,-4.432834148406982
0.03999999997904524,0.012116466648876667,10.596634733096073,-4.413189888000488
0.04099999996833503,0.012375332415103912,10.621327345686446,-4.392050266265869
0.04199999995762482,0.012519389390945435,10.645424897265505,-4.380476474761963
0.04299999994691461,0.012835588306188583,10.668955394675699,-4.355533599853516
0.043999999994412065,0.012978526763617992,10.691944912900398,-4.344459056854248
0.044999999983701855,0.013363596983253956,10.714417768752456,-4.315220832824707
0.045999999972991645,0.01359853707253933,10.736396675471232,-4.297792911529541
0.046999999962281436,0.013692645356059074,10.757902880692196,-4.290896415710449
0.047999999951571226,0.013907590880990028,10.778956289890028,-4.275320529937744
0.04899999999906868,0.0141100799664855,10.799575577092764,-4.260865688323975
0.04999999998835847,0.014254110865294933,10.819778284410283,-4.2507100105285645
0.05099999997764826,0.014331359416246414,10.839580911706463,-4.245305061340332
0.05199999996693805,0.014580742456018925,10.858998997563564,-4.228053569793701
0.05299999995622784,0.014813276007771492,10.87804719253426,-4.212231636047363
0.05399999994551763,0.014982348307967186,10.896739325546411,-4.200882434844971
0.05499999999301508,0.015059984289109707,10.915088464214607,-4.195713996887207
0.05599999998230487,0.01518989447504282,10.933106969717286,-4.187124729156494
0.05699999997159466,0.015436023473739624,10.950806546816688,-4.171051502227783
0.05799999996088445,0.015523264184594154,10.968198289528557,-4.165415287017822
0.05899999995017424,0.015805615112185478,10.985292722887856,-4.147389888763428
0.059999999997671694,0.016071215271949768,11.002099841204238,-4.130725383758545
0.060999999986961484,0.016384437680244446,11.018629143155449,-4.111423492431641
0.061999999976251274,0.016429904848337173,11.03488966402723,-4.108652114868164
0.06299999996554106,0.01647716946899891,11.05089000537367,-4.105779647827148
0.06399999995483086,0.01670125313103199,11.06663836234181,-4.092271327972412
0.06499999994412065,0.016867483034729958,11.082142548877775,-4.082367420196533
0.0659999999916181,0.017033005133271217,11.097410021008562,-4.072602272033691
0.06699999998090789,0.0173165425658226,11.112447898373103,-4.056093215942383
0.06799999997019768,0.017428886145353317,11.127262984158243,-4.049626350402832
0.06899999995948747,0.01778380759060383,11.141861783579396,-4.0294671058654785
0.06999999994877726,0.01821143366396427,11.156250521031495,-4.005705833435059
0.07099999999627471,0.01828383095562458,11.170435156023453,-4.00173807144165
0.0719999999855645,0.01835688389837742,11.184421397998193,-3.997750759124756
0.07299999997485429,0.018509918823838234,11.198214720130528,-3.9894485473632812
0.07399999996414408,0.01878509670495987,11.211820372186306,-3.974691390991211
0.07499999995343387,0.018874598667025566,11.225243392518447,-3.969938278198242
0.07600000000093132,0.01890355534851551,11.238488619268468,-3.968405246734619
0.07699999999022111,0.019201071932911873,11.251560700835821,-3.952789306640625
0.0779999999795109,0.01937495730817318,11.26446410567173,-3.9437739849090576
0.0789999999688007,0.0194403026252985,11.27720313144916,-3.9404070377349854
0.07999999995809048,0.01976914145052433,11.289781913656018,-3.923633098602295
0.08099999994738027,0.01994098536670208,11.302204433654575,-3.91497802734375
0.08199999999487773,0.020065218210220337,11.314474526246391,-3.9087674617767334
0.08299999998416752,0.020173804834485054,11.326595886778735,-3.9033703804016113
0.0839999999734573,0.020106760784983635,11.33857207782545,-3.9066991806030273
0.0849999999627471,0.02016930654644966,11.350406535472453,-3.9035933017730713
0.08599999995203689,0.020349295809864998,11.362102575235644,-3.8947088718414307
0.08699999999953434,0.020355181768536568,11.37366339763672,-3.8944196701049805
0.08799999998882413,0.020367201417684555,11.385092093460344,-3.893829345703125
0.08899999997811392,0.020686162635684013,11.396391648714276,-3.8782901763916016
0.08999999996740371,0.020906835794448853,11.407564949312402,-3.8676791191101074
0.0909999999566935,0.02115739695727825,11.418614785498987,-3.8557658195495605
0.09199999994598329,0.02108459360897541,11.429543856031177,-3.859212636947632
0.09299999999348074,0.021390793845057487,11.440354772135393,-3.844794750213623
0.09399999998277053,0.021365581080317497,11.451050061252142,-3.8459739685058594
0.09499999997206032,0.02159741148352623,11.461632170582678,-3.835181713104248
0.09599999996135011,0.021535877138376236,11.472103470449973,-3.8380351066589355
0.0969999999506399,0.02162376418709755,11.48246625748552,-3.8339624404907227
0.09799999999813735,0.02182719111442566,11.49272275765271,-3.824598789215088
0.09899999998742715,0.0218855831772089,11.502875129116727,-3.821927070617676
0.19899999996414408,0.03484680503606796,11.512925464970229,-3.3567938804626465
0.2989999999990687,0.04777929186820984,11.522875795823397,-3.0411629676818848
0.3989999999757856,0.0563068650662899,11.532728092266408,-2.876938819885254
0.49899999995250255,0.06283855438232422,11.542484267211773,-2.767186403274536
0.5989999999874271,0.07266305387020111,11.55214617812351,-2.621922254562378
0.6989999999641441,0.08019957691431046,11.56171562913966,-2.5232369899749756
0.7989999999990687,0.08892349898815155,11.571194373094205,-2.4199788570404053
0.8989999999757856,0.09468591213226318,11.580584113444043,-2.3571901321411133
0.9989999999525025,0.10184230655431747,11.589886506106357,-2.284329652786255
1.0989999999874271,0.10894424468278885,11.59910316121128,-2.2169189453125
1.198999999964144,0.11684161424636841,11.608235644774552,-2.1469359397888184
1.2989999999990687,0.12038619071245193,11.617285480294472,-2.1170504093170166
1.3989999999757856,0.12330782413482666,11.626254150277232,-2.093071460723877
1.4989999999525025,0.1316189169883728,11.635143097694478,-2.0278444290161133
1.5989999999874271,0.13660383224487305,11.643953727376633,-1.9906703233718872
1.698999999964144,0.14501701295375824,11.652687407345388,-1.9309042692184448
1.7989999999990687,0.15054675936698914,11.661345470088502,-1.8934814929962158
1.8989999999757856,0.15672512352466583,11.669929213779893,-1.8532618284225464
1.9989999999525025,0.1623591035604477,11.678439903447801,-1.8179447650909424
2.098999999987427,0.1667555421590805,11.686878772093667,-1.7912263870239258
2.198999999964144,0.1752554029226303,11.695247021764184,-1.7415109872817993
2.2989999999990687,0.18051953613758087,11.703545824578878,-1.711916208267212
2.3989999999757856,0.18950551748275757,11.711776323715394,-1.6633371114730835
2.4989999999525025,0.19681084156036377,11.719939634354555,-1.6255122423171997
2.598999999987427,0.20207864046096802,11.728036844587175,-1.5990983247756958
2.698999999964144,0.20957742631435394,11.736069016284437,-1.5626620054244995
2.7989999999990687,0.21657794713974,11.744037185933616,-1.5298047065734863
2.8989999999757856,0.21512018144130707,11.751942365440728,-1.5365583896636963
2.9989999999525025,0.22136320173740387,11.759785542901755,-1.5079505443572998
3.098999999987427,0.22559790313243866,11.76756768334381,-1.4890010356903076
3.198999999964144,0.23280005156993866,11.77528972943772,-1.4575753211975098
3.2989999999990687,0.23631782829761505,11.782952602183288,-1.442577600479126
3.3989999999757856,0.24492421746253967,11.790557201568507,-1.406806468963623
3.4989999999525025,0.24666978418827057,11.79810440720389,-1.3997046947479248
3.598999999987427,0.2480536699295044,11.805595078933049,-1.3941102027893066
3.698999999964144,0.25481075048446655,11.813030057420567,-1.3672341108322144
3.7989999999990687,0.2570560872554779,11.820410164718188,-1.3584610223770142
3.8989999999757856,0.2680222988128662,11.827736204810263,-1.3166850805282593
3.9989999999525025,0.270406037569046,11.835008964139341,-1.307830572128296
4.098999999987427,0.27858421206474304,11.842229212112828,-1.2780349254608154
4.198999999964144,0.2814611792564392,11.84939770159144,-1.2677607536315918
4.298999999999069,0.2830061912536621,11.856515169360305,-1.2622865438461304
4.398999999975786,0.2924041450023651,11.863582336583399,-1.2296184301376343
4.4989999999525025,0.29474732279777527,11.870599909242044,-1.2216367721557617
4.598999999987427,0.299113929271698,11.877568578558138,-1.2069307565689087
4.698999999964144,0.30088967084884644,11.884489021402711,-1.2010116577148438
4.798999999999069,0.3056983947753906,11.891361900690473,-1.1851563453674316
4.898999999975786,0.3104868531227112,11.898187865760873,-1.1696137189865112
4.9989999999525025,0.3141961693763733,11.904967552746252,-1.1577377319335938
5.098999999987427,0.320631742477417,11.911701584927597,-1.1374620199203491
5.198999999964144,0.3210180401802063,11.918390573078392,-1.1362578868865967
5.298999999999069,0.32567209005355835,11.925035115797062,-1.1218643188476562
5.398999999975786,0.33139944076538086,11.931635799828413,-1.104430913925171
5.4989999999525025,0.3378496766090393,11.938193200374572,-1.0851542949676514
5.598999999987427,0.33851590752601624,11.944707881395766,-1.0831842422485352
5.698999999964144,0.34318363666534424,11.951180395901384,-1.069489598274231
5.798999999999069,0.34690696001052856,11.957611286231675,-1.0586986541748047
5.898999999975786,0.3535396158695221,11.964001084330445,-1.0397597551345825
5.9989999999525025,0.3534320294857025,11.970350312009105,-1.0400640964508057
6.098999999987427,0.35715949535369873,11.976659481202368,-1.02957284450531
6.198999999964144,0.36543771624565125,11.982929094215963,-1.0066593885421753
6.298999999999069,0.3735921382904053,11.9891596439666,-0.9845906496047974
6.398999999975786,0.375099778175354,11.99535161421452,-0.9805631637573242
6.4989999999525025,0.379871666431427,12.0015054797889,-0.9679218530654907
6.598999999987427,0.3887227773666382,12.007621706806335,-0.9448888897895813
6.698999999964144,0.39286068081855774,12.013700752882718,-0.9343002438545227
6.798999999999069,0.4033055305480957,12.01974306733868,-0.9080609083175659
6.898999999975786,0.40630096197128296,12.025749091398891,-0.9006611108779907
6.9989999999525025,0.40510135889053345,12.031719258385396,-0.9036179780960083
7.098999999987427,0.4040321707725525,12.037653993905211,-0.9062607884407043
7.198999999964144,0.408469021320343,12.043553716032399,-0.8953392505645752
7.298999999999069,0.4141090512275696,12.049418835484797,-0.8816258907318115
7.398999999975786,0.4213525056838989,12.05524975579559,-0.8642854690551758
7.4989999999525025,0.42840757966041565,12.061046873479915,-0.8476802706718445
7.598999999987427,0.43556836247444153,12.066810578196666,-0.831103503704071
7.698999999964144,0.43524688482284546,12.072541252905651,-0.8318418264389038
7.798999999999069,0.4429651200771332,12.078239274020289,-0.8142642378807068
7.898999999975786,0.44649380445480347,12.083905011555967,-0.8063297271728516
7.9989999999525025,0.45044299960136414,12.089538829274222,-0.7975237369537354
8.098999999987427,0.4555383324623108,12.095141084822892,-0.7862753868103027
8.198999999964144,0.4563033878803253,12.100712129872347,-0.7845973968505859
8.298999999999069,0.45743823051452637,12.106252310247962,-0.7821134328842163
8.398999999975786,0.4692866802215576,12.111761966058932,-0.7565414309501648
8.498999999952503,0.47112494707107544,12.117241431823558,-0.7526319622993469
8.598999999987427,0.4783579111099243,12.122691036591123,-0.7373960614204407
8.698999999964144,0.4830959439277649,12.128111104060462,-0.7275400161743164
8.798999999999069,0.48720279335975647,12.133501952695338,-0.7190748453140259
8.898999999975786,0.4951988160610199,12.138863895836725,-0.7027959227561951
8.998999999952503,0.49600401520729065,12.144197241812087,-0.7011712789535522
9.098999999987427,0.4983364939689636,12.14950229404178,-0.6964797377586365
9.198999999964144,0.4963756203651428,12.154779351142624,-0.7004223465919495
9.298999999999069,0.4980512261390686,12.160028707028767,-0.6970523595809937
9.398999999975786,0.5088242292404175,12.165250651009918,-0.6756526231765747
9.498999999952503,0.5173696875572205,12.170445467887022,-0.6589975953102112
9.598999999987427,0.5189216136932373,12.175613438045465,-0.6560024619102478
9.698999999964144,0.518308699131012,12.180754837545884,-0.6571842432022095
9.798999999999069,0.5231727957725525,12.185869938212655,-0.6478434801101685
9.898999999975786,0.5268106460571289,12.190959007720126,-0.6409140825271606
9.998999999952503,0.5326435565948486,12.196022309676673,-0.6299028396606445
10.098999999987427,0.530397355556488,12.201060103706629,-0.6341288089752197
10.198999999964144,0.5345334410667419,12.206072645530174,-0.6263610124588013
10.298999999999069,0.5358720421791077,12.211060187041213,-0.6238598823547363
10.398999999975786,0.5458189249038696,12.216022976383341,-0.6054680347442627
10.498999999952503,0.5531008839607239,12.220961258023925,-0.5922148823738098
10.598999999987427,0.5542004108428955,12.225875272826354,-0.5902289152145386
10.698999999964144,0.5536239743232727,12.230765258120545,-0.5912695527076721
10.798999999999069,0.565882682800293,12.235631447771718,-0.5693684816360474
10.898999999975786,0.567658007144928,12.240474072247506,-0.566236138343811
10.998999999952503,0.5719490647315979,12.245293358683455,-0.5587053298950195
11.098999999987427,0.5711271166801453,12.250089530946948,-0.5601434707641602
11.198999999964144,0.5756373405456543,12.254862809699606,-0.5522774457931519
11.298999999999069,0.5797792077064514,12.259613412458204,-0.5451079607009888
11.398999999975786,0.5882112383842468,12.26434155365415,-0.5306691527366638
11.498999999952503,0.5852848887443542,12.269047444691562,-0.5356565713882446
11.598999999987427,0.5891820192337036,12.273731294003989,-0.5290201306343079
11.698999999964144,0.5926860570907593,12.2783933071098,-0.5230904221534729
11.798999999999069,0.5934212803840637,12.283033686666302,-0.5218507051467896
11.898999999975786,0.594740629196167,12.287652632522597,-0.5196298956871033
11.998999999952503,0.6032668352127075,12.292250341771226,-0.5053956508636475
12.098999999987427,0.6083113551139832,12.296827008798639,-0.4970684349536896
12.198999999964144,0.6174263954162598,12.301382825334498,-0.4821954071521759
12.298999999999069,0.6219015717506409,12.30591798049989,-0.4749734401702881
12.398999999975786,0.6192184090614319,12.310432660854417,-0.4792972207069397
12.498999999952503,0.6207041144371033,12.314927050442256,-0.47690075635910034
12.598999999987427,0.6297624111175537,12.319401330837177,-0.46241265535354614
12.698999999964144,0.6359449625015259,12.323855681186558,-0.4526432752609253
12.798999999999069,0.6339454054832458,12.328290278254423,-0.4557924270629883
12.898999999975786,0.6337056159973145,12.332705296463539,-0.4561707675457001
12.998999999952503,0.6348705291748047,12.337100907936577,-0.45433419942855835
13.098999999987427,0.647979736328125,12.341477282536376,-0.43389585614204407
13.198999999964144,0.6493098139762878,12.345834587905333,-0.4318453073501587
13.298999999999069,0.656805694103241,12.35017298950393,-0.420367032289505
13.398999999975786,0.6628902554512024,12.354492650648448,-0.4111458361148834
13.498999999952503,0.6634171605110168,12.358793732547838,-0.4103512763977051
13.598999999987427,0.6605636477470398,12.363076394339839,-0.41466179490089417
13.698999999964144,0.6683770418167114,12.367340793126296,-0.40290284156799316
13.798999999999069,0.6701627969741821,12.371587084007746,-0.4002346098423004
13.898999999975786,0.6758810877799988,12.375815420117268,-0.3917381167411804
13.998999999952503,0.6746295094490051,12.380025952653611,-0.39359164237976074
14.098999999987427,0.6767739057540894,12.384218830913648,-0.39041805267333984
14.198999999964144,0.6823025941848755,12.388394202324129,-0.3822820484638214
14.298999999999069,0.6873841285705566,12.392552212472792,-0.3748619854450226
14.398999999975786,0.6883925199508667,12.396693005138824,-0.3733960688114166
14.498999999952503,0.6987135410308838,12.400816722322686,-0.3585144281387329
14.598999999987427,0.7029893398284912,12.404923504275338,-0.3524135649204254
14.698999999964144,0.7088126540184021,12.409013489526863,-0.34416404366493225
14.798999999999069,0.7219672203063965,12.4130868149145,-0.3257755935192108
14.898999999975786,0.7254725098609924,12.417143615610113,-0.3209320604801178
14.998999999952503,0.7265714406967163,12.421184025147118,-0.31941846013069153
15.098999999987427,0.7313715219497681,12.425208175446844,-0.3128337562084198
15.198999999964144,0.7417227625846863,12.429216196844383,-0.29877978563308716
15.298999999999069,0.7466988563537598,12.43320821811392,-0.29209333658218384
15.398999999975786,0.7511917948722839,12.437184366493561,-0.2860942482948303
15.498999999952503,0.759711503982544,12.441144767709657,-0.27481651306152344
15.598999999987427,0.7610589265823364,12.445089546000673,-0.27304449677467346
15.698999999964144,0.7712201476097107,12.449018824140563,-0.25978145003318787
15.798999999999069,0.7746708989143372,12.4529327234617,-0.25531700253486633
15.898999999975786,0.7732628583908081,12.456831363877356,-0.2571362555027008
