Time [ps],MSD Values,Log Time,Log MSD 
0.0,0.0,-inf,-inf
0.0009999999310821295,0.0003472416428849101,6.907755278982137,-7.965489864349365
0.001999999978579581,0.000770146434661001,7.600902459542082,-7.1689300537109375
0.003000000026077032,0.001218927907757461,8.006367567650246,-6.709783554077148
0.003999999957159162,0.0016275211237370968,8.294049640102028,-6.420697212219238
0.005000000004656613,0.0018696350743994117,8.517193191416238,-6.282011985778809
0.005999999935738742,0.002173374406993389,8.699514748210191,-6.131474494934082
0.006999999983236194,0.0025026071816682816,8.85366542803745,-5.990422248840332
0.008000000030733645,0.0028147161938250065,8.987196820661973,-5.872893810272217
0.008999999961815774,0.0029944078996777534,9.104979856318357,-5.811008930206299
0.010000000009313226,0.003358605317771435,9.210340371976184,-5.696229457855225
0.010999999940395355,0.003720695385709405,9.305650551780507,-5.593844890594482
0.011999999987892807,0.004134735092520714,9.392661928770137,-5.4883317947387695
0.013000000035390258,0.00427065696567297,9.472704636443673,-5.455987453460693
0.013999999966472387,0.004517285618931055,9.546812608597396,-5.399844169616699
0.015000000013969839,0.004612836521118879,9.615805480084347,-5.378912448883057
0.015999999945051968,0.004866877105087042,9.680344001221918,-5.325302600860596
0.01699999999254942,0.005175923462957144,9.740968623038354,-5.263737678527832
0.01800000004004687,0.0055812932550907135,9.798127036878302,-5.188334941864014
0.018999999971129,0.00582230044528842,9.852194258148577,-5.146059989929199
0.02000000001862645,0.006041807122528553,9.903487552536127,-5.1090521812438965
0.02099999994970858,0.006024820730090141,9.95227771670556,-5.111867427825928
0.021999999997206032,0.00626871082931757,9.998797732340453,-5.0721845626831055
0.023000000044703484,0.0064757452346384525,10.043249494911286,-5.03969144821167
0.023999999975785613,0.006680052261799574,10.085809109330082,-5.008629322052002
0.025000000023283064,0.00678374245762825,10.126631103850338,-4.993226528167725
0.025999999954365194,0.006667801644653082,10.165851817003619,-5.010465145111084
0.027000000001862645,0.006875766906887293,10.203592144986466,-4.979752063751221
0.027999999932944775,0.0070988829247653484,10.239959789157341,-4.947817802429199
0.028999999980442226,0.007401986047625542,10.275051108968611,-4.906006813049316
0.030000000027939677,0.007730554789304733,10.308952660644293,-4.862574577331543
0.030999999959021807,0.007968790829181671,10.341742483467284,-4.8322224617004395
0.03200000000651926,0.008533647283911705,10.373491181781864,-4.763738632202148
0.03299999993760139,0.008901793509721756,10.404262840448617,-4.721502304077148
0.03399999998509884,0.008879556320607662,10.4341158035983,-4.724003791809082
0.03500000003259629,0.009099558927118778,10.46310334047155,-4.69952917098999
0.03599999996367842,0.009225664660334587,10.491274217438248,-4.685766220092773
0.03700000001117587,0.009433231316506863,10.51867319162636,-4.663516521453857
0.037999999942258,0.00952422060072422,10.545341438708522,-4.65391731262207
0.03899999998975545,0.010002121329307556,10.571316925111784,-4.6049580574035645
0.0400000000372529,0.010456056334078312,10.596634733096073,-4.560574054718018
0.04099999996833503,0.010626807808876038,10.621327345686446,-4.544375419616699
0.042000000015832484,0.010817700065672398,10.645424897265505,-4.526571750640869
0.04299999994691461,0.011345274746418,10.668955394675699,-4.478953838348389
0.043999999994412065,0.011528154835104942,10.691944912900398,-4.462963104248047
0.045000000041909516,0.011769500561058521,10.714417768752456,-4.442243576049805
0.045999999972991645,0.012404786422848701,10.736396675471232,-4.389672756195068
0.0470000000204891,0.012538755312561989,10.757902880692196,-4.378931045532227
0.047999999951571226,0.012971773743629456,10.778956289890028,-4.344979763031006
0.04899999999906868,0.013412291184067726,10.799575577092764,-4.311583518981934
0.04999999993015081,0.01387378666549921,10.819778284410283,-4.277754306793213
0.05099999997764826,0.013780304230749607,10.839580911706463,-4.284514904022217
0.05200000002514571,0.013997084461152554,10.858998997563564,-4.268906116485596
0.05299999995622784,0.014130077324807644,10.87804719253426,-4.259449481964111
0.05400000000372529,0.014209683984518051,10.896739325546411,-4.253831386566162
0.05499999993480742,0.014776955358684063,10.915088464214607,-4.214686393737793
0.05599999998230487,0.015196924097836018,10.933106969717286,-4.186662197113037
0.05700000002980232,0.015250961296260357,10.950806546816688,-4.183112621307373
0.05799999996088445,0.015396723523736,10.968198289528557,-4.173600673675537
0.0590000000083819,0.015963546931743622,10.985292722887856,-4.137447357177734
0.05999999993946403,0.015957437455654144,11.002099841204238,-4.1378302574157715
0.060999999986961484,0.016439680010080338,11.018629143155449,-4.108057498931885
0.062000000034458935,0.016293862834572792,11.03488966402723,-4.116966724395752
0.06299999996554106,0.016616802662611008,11.05089000537367,-4.097341060638428
0.06400000001303852,0.016633382067084312,11.06663836234181,-4.096343517303467
0.06499999994412065,0.016908997669816017,11.082142548877775,-4.079909324645996
0.0659999999916181,0.01698751002550125,11.097410021008562,-4.075276851654053
0.06700000003911555,0.017577189952135086,11.112447898373103,-4.041153430938721
0.06799999997019768,0.017647257074713707,11.127262984158243,-4.037174701690674
0.06900000001769513,0.018298031762242317,11.141861783579396,-4.000961780548096
0.06999999994877726,0.018330443650484085,11.156250521031495,-3.999191999435425
0.07099999999627471,0.01891380362212658,11.170435156023453,-3.9678633213043213
0.07200000004377216,0.018862560391426086,11.184421397998193,-3.970576286315918
0.07299999997485429,0.019154980778694153,11.198214720130528,-3.9551925659179688
0.07400000002235174,0.019623098894953728,11.211820372186306,-3.9310479164123535
0.07499999995343387,0.019658176228404045,11.225243392518447,-3.9292619228363037
0.07600000000093132,0.01925528794527054,11.238488619268468,-3.949969530105591
0.07699999993201345,0.019268468022346497,11.251560700835821,-3.9492852687835693
0.0779999999795109,0.019097501412034035,11.26446410567173,-3.958197832107544
0.07900000002700835,0.019500529393553734,11.27720313144916,-3.9373135566711426
0.07999999995809048,0.02009715884923935,11.289781913656018,-3.907176971435547
0.08100000000558794,0.020031925290822983,11.302204433654575,-3.910428047180176
0.08199999993667006,0.02016528882086277,11.314474526246391,-3.9037926197052
0.08299999998416752,0.02033366449177265,11.326595886778735,-3.895477294921875
0.08400000003166497,0.020597821101546288,11.33857207782545,-3.8825700283050537
0.0849999999627471,0.02049514651298523,11.350406535472453,-3.8875672817230225
0.08600000001024455,0.02069629542529583,11.362102575235644,-3.877800464630127
0.08699999994132668,0.020422805100679398,11.37366339763672,-3.8911030292510986
0.08799999998882413,0.020493749529123306,11.385092093460344,-3.8876352310180664
0.08900000003632158,0.02059382200241089,11.396391648714276,-3.8827641010284424
0.08999999996740371,0.020353885367512703,11.407564949312402,-3.8944835662841797
0.09100000001490116,0.02060096710920334,11.418614785498987,-3.8824172019958496
0.09199999994598329,0.02064264751970768,11.429543856031177,-3.8803961277008057
0.09299999999348074,0.020966067910194397,11.440354772135393,-3.8648500442504883
0.0940000000409782,0.021177226677536964,11.451050061252142,-3.8548288345336914
0.09499999997206032,0.021565910428762436,11.461632170582678,-3.836641550064087
0.09600000001955777,0.02098109945654869,11.472103470449973,-3.864133358001709
0.0969999999506399,0.021366562694311142,11.48246625748552,-3.845928192138672
0.09799999999813735,0.021411312744021416,11.49272275765271,-3.8438358306884766
0.09899999992921948,0.021465815603733063,11.502875129116727,-3.8412935733795166
0.19900000002235174,0.03317706659436226,11.512925464970229,-3.4058964252471924
0.2989999999990687,0.03871897980570793,11.522875795823397,-3.251425266265869
0.3989999999757856,0.0509253591299057,11.532728092266408,-2.9773943424224854
0.49899999995250255,0.05339827761054039,11.542484267211773,-2.92997670173645
0.5989999999292195,0.06102505326271057,11.55214617812351,-2.796470880508423
0.6990000000223517,0.07094603776931763,11.56171562913966,-2.6458356380462646
0.7989999999990687,0.07456693053245544,11.571194373094205,-2.5960581302642822
0.8989999999757856,0.08383898437023163,11.580584113444043,-2.4788570404052734
0.9989999999525025,0.08832478523254395,11.589886506106357,-2.426734447479248
1.0989999999292195,0.10463657230138779,11.59910316121128,-2.2572622299194336
1.1990000000223517,0.11300597339868546,11.608235644774552,-2.180314540863037
1.2989999999990687,0.11864873766899109,11.617285480294472,-2.1315879821777344
1.3989999999757856,0.11581666022539139,11.626254150277232,-2.1557469367980957
1.4989999999525025,0.12002113461494446,11.635143097694478,-2.1200873851776123
1.5989999999292195,0.1338779479265213,11.643953727376633,-2.010826826095581
1.6990000000223517,0.1447685807943344,11.652687407345388,-1.9326188564300537
1.7989999999990687,0.14909498393535614,11.661345470088502,-1.9031717777252197
1.8989999999757856,0.14115139842033386,11.669929213779893,-1.9579222202301025
1.9989999999525025,0.15037284791469574,11.678439903447801,-1.8946374654769897
2.0989999999292195,0.14844182133674622,11.686878772093667,-1.9075621366500854
2.1990000000223517,0.1498449444770813,11.695247021764184,-1.8981542587280273
2.2989999999990687,0.16227278113365173,11.703545824578878,-1.8184765577316284
2.3989999999757856,0.1741124987602234,11.711776323715394,-1.7480535507202148
2.4989999999525025,0.17176154255867004,11.719939634354555,-1.761648178100586
2.5989999999292195,0.16574566066265106,11.728036844587175,-1.7973008155822754
2.6990000000223517,0.17865853011608124,11.736069016284437,-1.7222789525985718
2.7989999999990687,0.1755858063697815,11.744037185933616,-1.7396273612976074
2.8989999999757856,0.181536465883255,11.751942365440728,-1.7062987089157104
2.9989999999525025,0.1859421581029892,11.759785542901755,-1.6823196411132812
3.0989999999292195,0.17484666407108307,11.76756768334381,-1.7438459396362305
3.1990000000223517,0.17419074475765228,11.77528972943772,-1.7476043701171875
3.2989999999990687,0.18458884954452515,11.782952602183288,-1.689624309539795
3.3989999999757856,0.17368581891059875,11.790557201568507,-1.7505072355270386
3.4989999999525025,0.19396382570266724,11.79810440720389,-1.6400835514068604
3.5989999999292195,0.19922077655792236,11.805595078933049,-1.6133415699005127
3.6990000000223517,0.2014683187007904,11.813030057420567,-1.6021231412887573
3.7989999999990687,0.19622445106506348,11.820410164718188,-1.6284961700439453
3.8989999999757856,0.1996946930885315,11.827736204810263,-1.610965609550476
3.9989999999525025,0.20343972742557526,11.835008964139341,-1.5923855304718018
4.0989999999292195,0.2046465426683426,11.842229212112828,-1.5864709615707397
4.199000000022352,0.21651430428028107,11.84939770159144,-1.5300986766815186
4.298999999999069,0.22280308604240417,11.856515169360305,-1.5014668703079224
4.398999999975786,0.24057355523109436,11.863582336583399,-1.424729347229004
4.4989999999525025,0.23605123162269592,11.870599909242044,-1.4437063932418823
4.5989999999292195,0.24786801636219025,11.877568578558138,-1.3948588371276855
4.699000000022352,0.24642878770828247,11.884489021402711,-1.4006822109222412
4.798999999999069,0.24900181591510773,11.891361900690473,-1.390295147895813
4.898999999975786,0.25427401065826416,11.898187865760873,-1.3693428039550781
4.9989999999525025,0.2626723051071167,11.904967552746252,-1.3368480205535889
5.0989999999292195,0.25130143761634827,11.911701584927597,-1.3811020851135254
5.199000000022352,0.2620173692703247,11.918390573078392,-1.3393445014953613
5.298999999999069,0.2675178647041321,11.925035115797062,-1.3185689449310303
5.398999999975786,0.27013927698135376,11.931635799828413,-1.3088176250457764
5.4989999999525025,0.2669826149940491,11.938193200374572,-1.320571780204773
5.5989999999292195,0.2727496922016144,11.944707881395766,-1.2992007732391357
5.699000000022352,0.2813575267791748,11.951180395901384,-1.2681291103363037
5.798999999999069,0.2783934473991394,11.957611286231675,-1.2787199020385742
5.898999999975786,0.29226088523864746,11.964001084330445,-1.2301084995269775
5.9989999999525025,0.2772138714790344,11.970350312009105,-1.2829660177230835
6.0989999999292195,0.2777579426765442,11.976659481202368,-1.2810052633285522
6.199000000022352,0.2792969346046448,11.982929094215963,-1.275479793548584
6.298999999999069,0.29248765110969543,11.9891596439666,-1.2293328046798706
6.398999999975786,0.2974972724914551,11.99535161421452,-1.2123502492904663
6.4989999999525025,0.28344184160232544,12.0015054797889,-1.2607483863830566
6.5989999999292195,0.29938390851020813,12.007621706806335,-1.2060285806655884
6.699000000022352,0.29742228984832764,12.013700752882718,-1.2126023769378662
6.798999999999069,0.3161868453025818,12.01974306733868,-1.1514220237731934
6.898999999975786,0.3284521698951721,12.025749091398891,-1.1133641004562378
6.9989999999525025,0.31769606471061707,12.031719258385396,-1.1466600894927979
7.0989999999292195,0.34502410888671875,12.037653993905211,-1.064141035079956
7.199000000022352,0.3554743230342865,12.043553716032399,-1.0343022346496582
7.298999999999069,0.3480322062969208,12.049418835484797,-1.0554602146148682
7.398999999975786,0.3490433692932129,12.05524975579559,-1.0525591373443604
7.4989999999525025,0.34528911113739014,12.061046873479915,-1.0633732080459595
7.5989999999292195,0.3534761965274811,12.066810578196666,-1.0399391651153564
7.699000000022352,0.3593853712081909,12.072541252905651,-1.023360013961792
7.798999999999069,0.34594571590423584,12.078239274020289,-1.0614733695983887
7.898999999975786,0.3448299765586853,12.083905011555967,-1.0647038221359253
7.9989999999525025,0.3614777624607086,12.089538829274222,-1.017554759979248
8.09899999992922,0.3661603331565857,12.095141084822892,-1.0046839714050293
8.199000000022352,0.36799997091293335,12.100712129872347,-0.9996724128723145
8.298999999999069,0.3883783221244812,12.106252310247962,-0.9457753896713257
8.398999999975786,0.3942517340183258,12.111761966058932,-0.9307656288146973
8.498999999952503,0.39578115940093994,12.117241431823558,-0.9268938302993774
8.59899999992922,0.39229583740234375,12.122691036591123,-0.9357390403747559
8.699000000022352,0.4021812081336975,12.128111104060462,-0.9108525514602661
8.798999999999069,0.4040403664112091,12.133501952695338,-0.9062404632568359
8.898999999975786,0.3968620002269745,12.138863895836725,-0.9241666793823242
8.998999999952503,0.4030416011810303,12.144197241812087,-0.9087154865264893
9.09899999992922,0.4096055328845978,12.14950229404178,-0.8925607204437256
9.199000000022352,0.4153769314289093,12.154779351142624,-0.8785688877105713
9.298999999999069,0.42446479201316833,12.160028707028767,-0.8569262027740479
9.398999999975786,0.42597484588623047,12.165250651009918,-0.8533749580383301
9.498999999952503,0.4162571430206299,12.170445467887022,-0.8764520883560181
9.59899999992922,0.4366094172000885,12.175613438045465,-0.8287162780761719
9.699000000022352,0.45367342233657837,12.180754837545884,-0.790377676486969
9.798999999999069,0.44104331731796265,12.185869938212655,-0.8186122179031372
9.898999999975786,0.43742305040359497,12.190959007720126,-0.8268544673919678
9.998999999952503,0.4509846270084381,12.196022309676673,-0.7963220477104187
10.09899999992922,0.4484297037124634,12.201060103706629,-0.8020033836364746
10.199000000022352,0.45349249243736267,12.206072645530174,-0.7907765507698059
10.298999999999069,0.4518832862377167,12.211060187041213,-0.7943313717842102
10.398999999975786,0.467781662940979,12.216022976383341,-0.7597536444664001
10.498999999952503,0.4600467383861542,12.220961258023925,-0.7764272093772888
10.59899999992922,0.4530368447303772,12.225875272826354,-0.7917818427085876
10.699000000022352,0.47238385677337646,12.230765258120545,-0.7499634027481079
10.798999999999069,0.47911179065704346,12.235631447771718,-0.7358213067054749
10.898999999975786,0.47993385791778564,12.240474072247506,-0.7341069579124451
10.998999999952503,0.4758048355579376,12.245293358683455,-0.7427475452423096
11.09899999992922,0.48031172156333923,12.250089530946948,-0.7333199977874756
11.199000000022352,0.4870881736278534,12.254862809699606,-0.7193101048469543
11.298999999999069,0.47872990369796753,12.259613412458204,-0.73661869764328
11.398999999975786,0.4768926501274109,12.26434155365415,-0.7404638528823853
11.498999999952503,0.47470590472221375,12.269047444691562,-0.7450598478317261
11.59899999992922,0.4754630923271179,12.273731294003989,-0.7434660196304321
11.699000000022352,0.47778499126434326,12.2783933071098,-0.7385944724082947
11.798999999999069,0.47753119468688965,12.283033686666302,-0.7391257882118225
11.898999999975786,0.4743301570415497,12.287652632522597,-0.7458516955375671
11.998999999952503,0.48216503858566284,12.292250341771226,-0.729468822479248
12.09899999992922,0.4770767390727997,12.296827008798639,-0.7400779128074646
12.199000000022352,0.48953959345817566,12.301382825334498,-0.7142899632453918
12.298999999999069,0.4746735095977783,12.30591798049989,-0.7451280355453491
12.398999999975786,0.49385789036750793,12.310432660854417,-0.7055074572563171
12.498999999952503,0.4846551716327667,12.314927050442256,-0.7243176102638245
12.59899999992922,0.5006341934204102,12.319401330837177,-0.6918795704841614
12.699000000022352,0.49831974506378174,12.323855681186558,-0.6965133547782898
12.798999999999069,0.5145001411437988,12.328290278254423,-0.6645594239234924
12.898999999975786,0.5292940139770508,12.332705296463539,-0.6362112164497375
12.998999999952503,0.5248595476150513,12.337100907936577,-0.6446245908737183
13.09899999992922,0.5362150073051453,12.341477282536376,-0.6232200860977173
13.199000000022352,0.5392042994499207,12.345834587905333,-0.6176607608795166
13.298999999999069,0.5546296834945679,12.35017298950393,-0.5894546508789062
13.398999999975786,0.559864342212677,12.354492650648448,-0.5800607800483704
13.498999999952503,0.5537894368171692,12.358793732547838,-0.5909707546234131
13.59899999992922,0.5684244632720947,12.363076394339839,-0.5648868680000305
13.699000000022352,0.5709750652313232,12.367340793126296,-0.5604097247123718
13.798999999999069,0.564754843711853,12.371587084007746,-0.5713635683059692
13.898999999975786,0.5760266184806824,12.375815420117268,-0.5516014099121094
13.998999999952503,0.5825175642967224,12.380025952653611,-0.540395975112915
14.09899999992922,0.580873966217041,12.384218830913648,-0.5432214736938477
14.199000000022352,0.5959304571151733,12.388394202324129,-0.5176312923431396
14.298999999999069,0.5808651447296143,12.392552212472792,-0.5432366728782654
14.398999999975786,0.5578154921531677,12.396693005138824,-0.5837270021438599
14.498999999952503,0.5693700313568115,12.400816722322686,-0.563224732875824
14.59899999992922,0.5806254744529724,12.404923504275338,-0.5436493754386902
14.699000000022352,0.5931441783905029,12.409013489526863,-0.5223177671432495
14.798999999999069,0.5646020770072937,12.4130868149145,-0.57163405418396
14.898999999975786,0.5580188632011414,12.417143615610113,-0.5833625197410583
14.998999999952503,0.5698243379592896,12.421184025147118,-0.5624271631240845
15.09899999992922,0.5854929089546204,12.425208175446844,-0.5353012084960938
15.199000000022352,0.5773722529411316,12.429216196844383,-0.5492680668830872
15.298999999999069,0.5868225693702698,12.43320821811392,-0.5330327749252319
15.398999999975786,0.6108642220497131,12.437184366493561,-0.49288055300712585
15.498999999952503,0.6263477206230164,12.441144767709657,-0.46784958243370056
15.59899999992922,0.6091638803482056,12.445089546000673,-0.4956679344177246
15.699000000022352,0.6201238632202148,12.449018824140563,-0.4778360426425934
15.798999999999069,0.623407781124115,12.4529327234617,-0.47255444526672363
15.898999999975786,0.6280624270439148,12.456831363877356,-0.4651157259941101
