Time [ps],MSD Values,Log Time,Log MSD 
0.0,0.0,-inf,-inf
0.0009999999310821295,0.0003218609490431845,6.907755278982137,-8.041391372680664
0.001999999978579581,0.0006404953310266137,7.600902459542082,-7.353268623352051
0.003000000026077032,0.0009646537364460528,8.006367567650246,-6.943741321563721
0.003999999957159162,0.0012346386210992932,8.294049640102028,-6.696977138519287
0.005000000004656613,0.0015611950075253844,8.517193191416238,-6.462303638458252
0.005999999935738742,0.00187675969209522,8.699514748210191,-6.2782087326049805
0.006999999983236194,0.002147730439901352,8.85366542803745,-6.143343448638916
0.008000000030733645,0.0024830573238432407,8.987196820661973,-5.998264789581299
0.008999999961815774,0.002747809747233987,9.104979856318357,-5.896951198577881
0.010000000009313226,0.0030311900191009045,9.210340371976184,-5.798799991607666
0.010999999940395355,0.003301794407889247,9.305650551780507,-5.713289260864258
0.011999999987892807,0.00356902158819139,9.392661928770137,-5.635463714599609
0.013000000035390258,0.0038745631463825703,9.472704636443673,-5.5533223152160645
0.013999999966472387,0.0042013502679765224,9.546812608597396,-5.472349166870117
0.015000000013969839,0.004473715554922819,9.615805480084347,-5.409535884857178
0.015999999945051968,0.004677170421928167,9.680344001221918,-5.3650617599487305
0.01699999999254942,0.004980320576578379,9.740968623038354,-5.302260875701904
0.01800000004004687,0.005202542524784803,9.798127036878302,-5.258607864379883
0.018999999971129,0.005480247549712658,9.852194258148577,-5.206604957580566
0.02000000001862645,0.005702895112335682,9.903487552536127,-5.166781425476074
0.02099999994970858,0.006019318010658026,9.95227771670556,-5.112781524658203
0.021999999997206032,0.006262429524213076,9.998797732340453,-5.073186874389648
0.023000000044703484,0.006520094815641642,10.043249494911286,-5.032866477966309
0.023999999975785613,0.0067168246023356915,10.085809109330082,-5.003139972686768
0.025000000023283064,0.0070585585199296474,10.126631103850338,-4.953514575958252
0.025999999954365194,0.007340314332395792,10.165851817003619,-4.914373397827148
0.027000000001862645,0.007535233628004789,10.203592144986466,-4.888165473937988
0.027999999932944775,0.007750683464109898,10.239959789157341,-4.859974384307861
0.028999999980442226,0.008004887960851192,10.275051108968611,-4.82770299911499
0.030000000027939677,0.008175053633749485,10.308952660644293,-4.806667804718018
0.030999999959021807,0.008418085053563118,10.341742483467284,-4.77737283706665
0.03200000000651926,0.008659415878355503,10.373491181781864,-4.749107837677002
0.03299999993760139,0.008814687840640545,10.404262840448617,-4.7313361167907715
0.03399999998509884,0.008984952233731747,10.4341158035983,-4.7122039794921875
0.03500000003259629,0.009270533919334412,10.46310334047155,-4.680914402008057
0.03599999996367842,0.00952511839568615,10.491274217438248,-4.653822898864746
0.03700000001117587,0.009695985354483128,10.51867319162636,-4.636043548583984
0.037999999942258,0.009963045828044415,10.545341438708522,-4.608872413635254
0.03899999998975545,0.010047669522464275,10.571316925111784,-4.600414752960205
0.0400000000372529,0.010233293287456036,10.596634733096073,-4.582108974456787
0.04099999996833503,0.010308627039194107,10.621327345686446,-4.574774265289307
0.042000000015832484,0.01040517445653677,10.645424897265505,-4.5654520988464355
0.04299999994691461,0.010516268201172352,10.668955394675699,-4.5548319816589355
0.043999999994412065,0.010799717158079147,10.691944912900398,-4.52823543548584
0.045000000041909516,0.010923108085989952,10.714417768752456,-4.51687479019165
0.045999999972991645,0.01112606842070818,10.736396675471232,-4.498464584350586
0.0470000000204891,0.01140611432492733,10.757902880692196,-4.473605632781982
0.047999999951571226,0.01154561247676611,10.778956289890028,-4.46144962310791
0.04899999999906868,0.011726509779691696,10.799575577092764,-4.445903301239014
0.04999999993015081,0.011955490335822105,10.819778284410283,-4.426564693450928
0.05099999997764826,0.012089729309082031,10.839580911706463,-4.415399074554443
0.05200000002514571,0.012147179804742336,10.858998997563564,-4.410658359527588
0.05299999995622784,0.012332180514931679,10.87804719253426,-4.395543098449707
0.05400000000372529,0.012471605092287064,10.896739325546411,-4.384300708770752
0.05499999993480742,0.012533213011920452,10.915088464214607,-4.379373073577881
0.05599999998230487,0.012619021348655224,10.933106969717286,-4.372550010681152
0.05700000002980232,0.01279628835618496,10.950806546816688,-4.35860013961792
0.05799999996088445,0.012982343323528767,10.968198289528557,-4.344164848327637
0.0590000000083819,0.013109659776091576,10.985292722887856,-4.334405899047852
0.05999999993946403,0.0132531663402915,11.002099841204238,-4.323518753051758
0.060999999986961484,0.013380071148276329,11.018629143155449,-4.31398868560791
0.062000000034458935,0.013606552965939045,11.03488966402723,-4.29720401763916
0.06299999996554106,0.013819538988173008,11.05089000537367,-4.28167200088501
0.06400000001303852,0.013926024548709393,11.06663836234181,-4.273995876312256
0.06499999994412065,0.014148143120110035,11.082142548877775,-4.258172035217285
0.0659999999916181,0.014386015012860298,11.097410021008562,-4.241498947143555
0.06700000003911555,0.014554132707417011,11.112447898373103,-4.229880332946777
0.06799999997019768,0.01464042253792286,11.127262984158243,-4.223968982696533
0.06900000001769513,0.014752407558262348,11.141861783579396,-4.216349124908447
0.06999999994877726,0.014770103618502617,11.156250521031495,-4.215150356292725
0.07099999999627471,0.014928886666893959,11.170435156023453,-4.2044572830200195
0.07200000004377216,0.015108617953956127,11.184421397998193,-4.192490100860596
0.07299999997485429,0.015305721201002598,11.198214720130528,-4.179528713226318
0.07400000002235174,0.015439060516655445,11.211820372186306,-4.170854568481445
0.07499999995343387,0.015622143633663654,11.225243392518447,-4.1590657234191895
0.07600000000093132,0.01589825563132763,11.238488619268468,-4.14154577255249
0.07699999993201345,0.015865428373217583,11.251560700835821,-4.143612861633301
0.0779999999795109,0.01610720157623291,11.26446410567173,-4.128489017486572
0.07900000002700835,0.016330638900399208,11.27720313144916,-4.114712238311768
0.07999999995809048,0.016456592828035355,11.289781913656018,-4.107028961181641
0.08100000000558794,0.016640227288007736,11.302204433654575,-4.0959320068359375
0.08199999993667006,0.016982246190309525,11.314474526246391,-4.075586795806885
0.08299999998416752,0.017077025026082993,11.326595886778735,-4.070021152496338
0.08400000003166497,0.017231231555342674,11.33857207782545,-4.061031818389893
0.0849999999627471,0.017392165958881378,11.350406535472453,-4.0517354011535645
0.08600000001024455,0.017633821815252304,11.362102575235644,-4.037936687469482
0.08699999994132668,0.017812877893447876,11.37366339763672,-4.027833461761475
0.08799999998882413,0.01789942942559719,11.385092093460344,-4.02298641204834
0.08900000003632158,0.018078196793794632,11.396391648714276,-4.0130486488342285
0.08999999996740371,0.018412429839372635,11.407564949312402,-3.9947292804718018
0.09100000001490116,0.018677763640880585,11.418614785498987,-3.980421543121338
0.09199999994598329,0.018836520612239838,11.429543856031177,-3.9719576835632324
0.09299999999348074,0.019041011109948158,11.440354772135393,-3.961160182952881
0.0940000000409782,0.019139094278216362,11.451050061252142,-3.956022262573242
0.09499999997206032,0.01911259815096855,11.461632170582678,-3.9574074745178223
0.09600000001955777,0.01937262900173664,11.472103470449973,-3.943894147872925
0.0969999999506399,0.01945417746901512,11.48246625748552,-3.9396934509277344
0.09799999999813735,0.019576480612158775,11.49272275765271,-3.9334263801574707
0.09899999992921948,0.019952088594436646,11.502875129116727,-3.914421558380127
0.19900000002235174,0.0329381488263607,11.512925464970229,-3.413123846054077
0.2989999999990687,0.044200532138347626,11.522875795823397,-3.1190185546875
0.3989999999757856,0.05377646163105965,11.532728092266408,-2.922919511795044
0.49899999995250255,0.06358056515455246,11.542484267211773,-2.7554473876953125
0.5989999999292195,0.07516569644212723,11.55214617812351,-2.5880603790283203
0.6990000000223517,0.08119557052850723,11.56171562913966,-2.510894536972046
0.7989999999990687,0.08797115087509155,11.571194373094205,-2.43074631690979
0.8989999999757856,0.0995483547449112,11.580584113444043,-2.3071117401123047
0.9989999999525025,0.10815371572971344,11.589886506106357,-2.2242016792297363
1.0989999999292195,0.1181596964597702,11.59910316121128,-2.1357181072235107
1.1990000000223517,0.12321116030216217,11.608235644774552,-2.093855619430542
1.2989999999990687,0.1298031210899353,11.617285480294472,-2.041736364364624
1.3989999999757856,0.13580447435379028,11.626254150277232,-1.9965391159057617
1.4989999999525025,0.14087747037410736,11.635143097694478,-1.9598647356033325
1.5989999999292195,0.1479763239622116,11.643953727376633,-1.9107029438018799
1.6990000000223517,0.15211892127990723,11.652687407345388,-1.8830926418304443
1.7989999999990687,0.1596156805753708,11.661345470088502,-1.8349863290786743
1.8989999999757856,0.17291444540023804,11.669929213779893,-1.7549583911895752
1.9989999999525025,0.17559696733951569,11.678439903447801,-1.7395639419555664
2.0989999999292195,0.18157638609409332,11.686878772093667,-1.7060788869857788
2.1990000000223517,0.18953506648540497,11.695247021764184,-1.663181185722351
2.2989999999990687,0.19066713750362396,11.703545824578878,-1.6572260856628418
2.3989999999757856,0.1979684978723526,11.711776323715394,-1.6196473836898804
2.4989999999525025,0.20474787056446075,11.719939634354555,-1.5859758853912354
2.5989999999292195,0.2104451060295105,11.728036844587175,-1.5585304498672485
2.6990000000223517,0.2194620668888092,11.736069016284437,-1.5165759325027466
2.7989999999990687,0.22579582035541534,11.744037185933616,-1.488124132156372
2.8989999999757856,0.22709310054779053,11.751942365440728,-1.4823951721191406
2.9989999999525025,0.23687300086021423,11.759785542901755,-1.440231204032898
3.0989999999292195,0.24278835952281952,11.76756768334381,-1.4155651330947876
3.1990000000223517,0.2503763437271118,11.77528972943772,-1.384790062904358
3.2989999999990687,0.25571712851524353,11.782952602183288,-1.3636834621429443
3.3989999999757856,0.2595033347606659,11.790557201568507,-1.3489856719970703
3.4989999999525025,0.27035269141197205,11.79810440720389,-1.3080278635025024
3.5989999999292195,0.27795425057411194,11.805595078933049,-1.2802987098693848
3.6990000000223517,0.2835405766963959,11.813030057420567,-1.2604000568389893
3.7989999999990687,0.29712167382240295,11.820410164718188,-1.213613510131836
3.8989999999757856,0.3014451861381531,11.827736204810263,-1.199167013168335
3.9989999999525025,0.3047640323638916,11.835008964139341,-1.1882175207138062
4.0989999999292195,0.30725860595703125,11.842229212112828,-1.1800655126571655
4.199000000022352,0.312023788690567,11.84939770159144,-1.1646758317947388
4.298999999999069,0.3164236545562744,11.856515169360305,-1.150673270225525
4.398999999975786,0.32502514123916626,11.863582336583399,-1.1238527297973633
4.4989999999525025,0.3294198513031006,11.870599909242044,-1.110422134399414
4.5989999999292195,0.3284212350845337,11.877568578558138,-1.113458275794983
4.699000000022352,0.33248472213745117,11.884489021402711,-1.1011613607406616
4.798999999999069,0.34096190333366394,11.891361900690473,-1.0759845972061157
4.898999999975786,0.3449566960334778,11.898187865760873,-1.0643364191055298
4.9989999999525025,0.35031163692474365,11.904967552746252,-1.0489320755004883
5.0989999999292195,0.34996533393859863,11.911701584927597,-1.0499211549758911
5.199000000022352,0.35735201835632324,11.918390573078392,-1.029033899307251
5.298999999999069,0.3630083501338959,11.925035115797062,-1.0133295059204102
5.398999999975786,0.36868393421173096,11.931635799828413,-0.9978155493736267
5.4989999999525025,0.3768000602722168,11.938193200374572,-0.9760406017303467
5.5989999999292195,0.38694673776626587,11.944707881395766,-0.9494682550430298
5.699000000022352,0.38459181785583496,11.951180395901384,-0.9555727243423462
5.798999999999069,0.3958362936973572,11.957611286231675,-0.9267545938491821
5.898999999975786,0.40216147899627686,11.964001084330445,-0.9109015464782715
5.9989999999525025,0.41014060378074646,11.970350312009105,-0.891255259513855
6.0989999999292195,0.4142400622367859,11.976659481202368,-0.8813096284866333
6.199000000022352,0.42049241065979004,11.982929094215963,-0.8663288354873657
6.298999999999069,0.42437300086021423,11.9891596439666,-0.8571425080299377
6.398999999975786,0.43455520272254944,11.99535161421452,-0.8334323167800903
6.4989999999525025,0.44189801812171936,12.0015054797889,-0.816676139831543
6.5989999999292195,0.4512118697166443,12.007621706806335,-0.7958182692527771
6.699000000022352,0.44854509830474854,12.013700752882718,-0.8017460107803345
6.798999999999069,0.4552331864833832,12.01974306733868,-0.7869454622268677
6.898999999975786,0.4606349468231201,12.025749091398891,-0.775149405002594
6.9989999999525025,0.47475138306617737,12.031719258385396,-0.7449640035629272
7.0989999999292195,0.4821934401988983,12.037653993905211,-0.72940993309021
7.199000000022352,0.48682868480682373,12.043553716032399,-0.7198429703712463
7.298999999999069,0.4939236342906952,12.049418835484797,-0.7053743600845337
7.398999999975786,0.5012732744216919,12.05524975579559,-0.6906038522720337
7.4989999999525025,0.5005439519882202,12.061046873479915,-0.6920598745346069
7.5989999999292195,0.5105005502700806,12.066810578196666,-0.6723635792732239
7.699000000022352,0.5183253884315491,12.072541252905651,-0.6571520566940308
7.798999999999069,0.5258584022521973,12.078239274020289,-0.6427233219146729
7.898999999975786,0.5395128726959229,12.083905011555967,-0.6170886158943176
7.9989999999525025,0.5451980233192444,12.089538829274222,-0.6066062450408936
8.09899999992922,0.5444060564041138,12.095141084822892,-0.6080598831176758
8.199000000022352,0.548591136932373,12.100712129872347,-0.6004018783569336
8.298999999999069,0.5537809133529663,12.106252310247962,-0.5909861326217651
8.398999999975786,0.5626619458198547,12.111761966058932,-0.5750762820243835
8.498999999952503,0.5679567456245422,12.117241431823558,-0.5657100081443787
8.59899999992922,0.5794638991355896,12.122691036591123,-0.545651912689209
8.699000000022352,0.5941286683082581,12.128111104060462,-0.520659327507019
8.798999999999069,0.6053443551063538,12.133501952695338,-0.5019577741622925
8.898999999975786,0.6055026054382324,12.138863895836725,-0.5016964077949524
8.998999999952503,0.6062671542167664,12.144197241812087,-0.5004345178604126
9.09899999992922,0.6077726483345032,12.14950229404178,-0.49795442819595337
9.199000000022352,0.6172128319740295,12.154779351142624,-0.48254138231277466
9.298999999999069,0.6250485181808472,12.160028707028767,-0.46992599964141846
9.398999999975786,0.631384551525116,12.165250651009918,-0.45984017848968506
9.498999999952503,0.6311822533607483,12.170445467887022,-0.46016061305999756
9.59899999992922,0.637272834777832,12.175613438045465,-0.4505574107170105
9.699000000022352,0.6500332355499268,12.180754837545884,-0.43073177337646484
9.798999999999069,0.660964846611023,12.185869938212655,-0.41405460238456726
9.898999999975786,0.6644622683525085,12.190959007720126,-0.4087772071361542
9.998999999952503,0.6794253587722778,12.196022309676673,-0.38650789856910706
10.09899999992922,0.6886504888534546,12.201060103706629,-0.3730213940143585
10.199000000022352,0.694473922252655,12.206072645530174,-0.36460065841674805
10.298999999999069,0.7118351459503174,12.211060187041213,-0.3399089574813843
10.398999999975786,0.7052447199821472,12.216022976383341,-0.3492104411125183
10.498999999952503,0.7144166827201843,12.220961258023925,-0.3362888991832733
10.59899999992922,0.7211235761642456,12.225875272826354,-0.3269447088241577
10.699000000022352,0.7271867394447327,12.230765258120545,-0.3185719847679138
10.798999999999069,0.7415791153907776,12.235631447771718,-0.29897341132164
10.898999999975786,0.7487714290618896,12.240474072247506,-0.28932151198387146
10.998999999952503,0.7604835033416748,12.245293358683455,-0.2738008201122284
11.09899999992922,0.7690650820732117,12.250089530946948,-0.26257967948913574
11.199000000022352,0.7795722484588623,12.254862809699606,-0.249009907245636
11.298999999999069,0.7839438319206238,12.259613412458204,-0.2434179037809372
11.398999999975786,0.7855770587921143,12.26434155365415,-0.24133671820163727
11.498999999952503,0.7985298037528992,12.269047444691562,-0.22498300671577454
11.59899999992922,0.8049073815345764,12.273731294003989,-0.21702808141708374
11.699000000022352,0.8169146180152893,12.2783933071098,-0.20222070813179016
11.798999999999069,0.8141425848007202,12.283033686666302,-0.20561976730823517
11.898999999975786,0.8160675764083862,12.287652632522597,-0.20325814187526703
11.998999999952503,0.8292884826660156,12.292250341771226,-0.18718717992305756
12.09899999992922,0.8262805938720703,12.296827008798639,-0.1908208578824997
12.199000000022352,0.8377923369407654,12.301382825334498,-0.1769850254058838
12.298999999999069,0.835595965385437,12.30591798049989,-0.17961007356643677
12.398999999975786,0.821521520614624,12.310432660854417,-0.1965971291065216
12.498999999952503,0.8294967412948608,12.314927050442256,-0.18693609535694122
12.59899999992922,0.8337988257408142,12.319401330837177,-0.18176312744617462
12.699000000022352,0.8372202515602112,12.323855681186558,-0.17766809463500977
12.798999999999069,0.8419402837753296,12.328290278254423,-0.17204618453979492
12.898999999975786,0.8561528325080872,12.332705296463539,-0.1553063690662384
12.998999999952503,0.8529036045074463,12.337100907936577,-0.1591087430715561
13.09899999992922,0.8665782809257507,12.341477282536376,-0.14320282638072968
13.199000000022352,0.8741684556007385,12.345834587905333,-0.13448217511177063
13.298999999999069,0.8685675859451294,12.35017298950393,-0.14090988039970398
13.398999999975786,0.8648619055747986,12.354492650648448,-0.1451854407787323
13.498999999952503,0.8613102436065674,12.358793732547838,-0.1493005007505417
13.59899999992922,0.8690894246101379,12.363076394339839,-0.14030925929546356
13.699000000022352,0.8706359267234802,12.367340793126296,-0.1385313719511032
13.798999999999069,0.8741071820259094,12.371587084007746,-0.1345522701740265
13.898999999975786,0.8747209906578064,12.375815420117268,-0.1338503062725067
13.998999999952503,0.8833984732627869,12.380025952653611,-0.12397890537977219
14.09899999992922,0.8862038254737854,12.384218830913648,-0.12080830335617065
14.199000000022352,0.8904442191123962,12.388394202324129,-0.11603482067584991
14.298999999999069,0.8992274403572083,12.392552212472792,-0.10621929168701172
14.398999999975786,0.9135401248931885,12.396693005138824,-0.09042797982692719
14.498999999952503,0.9240475296974182,12.400816722322686,-0.07899176329374313
14.59899999992922,0.9233021140098572,12.404923504275338,-0.07979878038167953
14.699000000022352,0.926936686038971,12.409013489526863,-0.07587000727653503
14.798999999999069,0.9292937517166138,12.4130868149145,-0.07333039492368698
14.898999999975786,0.923142671585083,12.417143615610113,-0.07997147738933563
14.998999999952503,0.9233671426773071,12.421184025147118,-0.07972835004329681
15.09899999992922,0.9287670254707336,12.425208175446844,-0.0738973543047905
15.199000000022352,0.9379295110702515,12.429216196844383,-0.06408047676086426
15.298999999999069,0.9491786360740662,12.43320821811392,-0.05215826258063316
15.398999999975786,0.9542173147201538,12.437184366493561,-0.04686384275555611
15.498999999952503,0.9620757699012756,12.441144767709657,-0.03866207227110863
15.59899999992922,0.9762163758277893,12.445089546000673,-0.024071021005511284
15.699000000022352,0.9811986684799194,12.449018824140563,-0.018980324268341064
15.798999999999069,0.978046715259552,12.4529327234617,-0.022197846323251724
15.898999999975786,0.9948752522468567,12.456831363877356,-0.00513792410492897
